	Time	Time (s)	Distance [m]	H RPM [rpm]	H COOLANT [°C]	
Lap: 1	 07.04.443	0.000	0.00	0.000	40.449	
		0.100	0.03	0.000	40.449	
		0.200	0.06	0.000	40.449	
		0.300	0.08	0.000	40.449	
		0.400	0.11	0.000	40.449	
		0.500	0.14	0.000	40.449	
		0.600	0.17	0.000	40.449	
		0.700	0.19	0.000	40.449	
		0.800	0.22	0.000	40.449	
		0.900	0.25	0.000	40.449	
		1.000	0.28	0.000	40.449	
		1.100	0.31	0.000	40.449	
		1.200	0.33	0.000	40.449	
		1.300	0.36	0.000	40.449	
		1.400	0.39	0.000	40.449	
		1.500	0.42	0.000	40.449	
		1.600	0.45	0.000	40.449	
		1.700	0.47	0.000	40.449	
		1.800	0.50	0.000	40.449	
		1.900	0.53	0.000	40.449	
		2.000	0.56	0.000	40.449	
		2.100	0.58	0.000	40.449	
		2.200	0.61	0.000	40.449	
		2.300	0.64	0.000	40.449	
		2.400	0.67	0.000	40.449	
		2.500	0.70	0.000	40.449	
		2.600	0.72	0.000	40.449	
		2.700	0.75	0.000	40.449	
		2.800	0.78	0.000	40.449	
		2.900	0.81	0.000	40.449	
		3.000	0.83	0.000	40.449	
		3.100	0.86	0.000	40.449	
		3.200	0.89	0.000	40.449	
		3.300	0.92	0.000	40.449	
		3.400	0.95	0.000	40.449	
		3.500	0.97	128.655	40.449	
		3.600	1.00	2587.310	40.449	
		3.700	1.03	2856.526	40.449	
		3.800	1.06	2838.979	40.449	
		3.900	1.08	2829.469	40.449	
		4.000	1.11	2865.444	40.449	
		4.100	1.14	2859.814	40.449	
		4.200	1.17	2956.864	40.449	
		4.300	1.20	2912.576	40.449	
		4.400	1.22	2568.190	40.449	
		4.500	1.25	2009.120	40.449	
		4.600	1.28	1479.328	40.449	
		4.700	1.31	1673.107	40.449	
		4.800	1.34	2343.908	40.449	
		4.900	1.36	2930.933	40.449	
		5.000	1.39	3037.766	40.449	
		5.100	1.42	3255.965	40.449	
		5.200	1.45	3968.486	40.449	
		5.300	1.47	3755.175	40.449	
		5.400	1.50	3901.342	40.449	
		5.500	1.53	3636.687	40.449	
		5.600	1.56	3271.371	40.447	
		5.700	1.59	3597.327	40.413	
		5.800	1.61	3880.208	40.380	
		5.900	1.64	3622.207	40.365	
		6.000	1.67	3275.465	40.350	
		6.100	1.70	3760.014	40.350	
		6.200	1.72	4067.135	40.350	
		6.300	1.75	3717.961	40.350	
		6.400	1.78	3528.971	40.350	
		6.500	1.81	3765.944	40.350	
		6.600	1.84	4064.193	40.350	
		6.700	1.86	4008.592	40.350	
		6.800	1.89	3739.819	40.350	
		6.900	1.92	3886.041	40.350	
		7.000	1.95	3859.654	40.350	
		7.100	1.97	3731.758	40.350	
		7.200	2.00	3655.384	40.350	
		7.300	2.03	3650.471	40.350	
		7.400	2.06	3699.449	40.351	
		7.500	2.09	3481.188	40.358	
		7.600	2.11	3377.044	40.368	
		7.700	2.14	3392.926	40.411	
		7.800	2.17	3586.837	40.449	
		7.900	2.20	3520.753	40.449	
		8.000	2.22	3167.422	40.449	
		8.100	2.25	3218.141	40.449	
		8.200	2.28	3686.131	40.449	
		8.300	2.31	3782.563	40.449	
		8.400	2.34	3315.507	40.449	
		8.500	2.36	3037.603	40.449	
		8.600	2.39	3173.687	40.454	
		8.700	2.42	3664.275	40.494	
		8.800	2.45	3909.307	40.531	
		8.900	2.47	4011.285	40.541	
		9.000	2.50	4045.214	40.549	
		9.100	2.53	3954.515	40.549	
		9.200	2.55	4006.660	40.549	
		9.300	2.58	3917.069	40.549	
		9.400	2.60	3841.189	40.553	
		9.500	2.63	3818.581	40.581	
		9.600	2.66	3733.052	40.608	
		9.700	2.68	3784.361	40.630	
		9.800	2.71	3838.567	40.649	
		9.900	2.73	3918.438	40.649	
		10.000	2.76	3859.300	40.649	
		10.100	2.78	3967.678	40.649	
		10.200	2.81	3920.220	40.652	
		10.300	2.83	3796.093	40.668	
		10.400	2.85	3569.099	40.687	
		10.500	2.86	3574.205	40.720	
		10.600	2.87	3948.128	40.750	
		10.700	2.88	3934.283	40.750	
		10.800	2.89	3628.740	40.750	
		10.900	2.89	3804.461	40.750	
		11.000	2.89	3901.041	40.750	
		11.100	2.90	3661.228	40.754	
		11.200	2.90	3979.571	40.765	
		11.300	2.90	3732.491	40.811	
		11.400	2.90	3921.696	40.850	
		11.500	2.90	3860.759	40.850	
		11.600	2.90	3749.232	40.850	
		11.700	2.91	3651.363	40.850	
		11.800	2.91	3749.855	40.855	
		11.900	2.91	3839.900	40.895	
		12.000	2.91	3805.033	40.929	
		12.100	2.91	3716.886	40.940	
		12.200	2.91	3756.894	40.950	
		12.300	2.91	3853.938	40.950	
		12.400	2.91	3828.733	40.954	
		12.500	2.91	3861.288	40.982	
		12.600	2.91	4123.254	41.010	
		12.700	2.91	4699.167	41.031	
		12.800	2.91	4864.257	41.050	
		12.900	2.91	5174.036	41.050	
		13.000	2.91	5816.216	41.053	
		13.100	2.91	6786.423	41.070	
		13.200	2.91	7601.876	41.091	
		13.300	2.91	7671.702	41.123	
		13.400	2.91	7588.666	41.150	
		13.500	2.91	7405.083	41.150	
		13.600	2.91	7021.369	41.151	
		13.700	2.91	6521.226	41.159	
		13.800	2.91	5905.089	41.173	
		13.900	2.91	5250.836	41.215	
		14.000	2.91	4811.693	41.250	
		14.100	2.91	4624.896	41.251	
		14.200	2.91	4369.420	41.260	
		14.300	2.91	4130.952	41.306	
		14.400	2.91	4165.984	41.345	
		14.500	2.91	4132.330	41.347	
		14.600	2.91	3985.457	41.350	
		14.700	2.91	3929.499	41.350	
		14.800	2.91	4004.180	41.357	
		14.900	2.91	4304.565	41.394	
		15.000	2.91	5059.194	41.427	
		15.100	2.91	5947.581	41.440	
		15.200	2.91	7029.772	41.456	
		15.300	2.91	7487.999	41.485	
		15.400	2.91	7555.093	41.513	
		15.500	2.91	7901.912	41.533	
		15.600	2.91	8006.099	41.554	
		15.700	2.91	7728.999	41.577	
		15.800	2.91	7714.320	41.601	
		15.900	2.91	7677.148	41.628	
		16.000	2.91	7795.951	41.653	
		16.100	2.91	7925.794	41.669	
		16.200	2.91	7735.968	41.689	
		16.300	2.91	7763.868	41.723	
		16.400	2.91	7718.823	41.752	
		16.500	2.91	7521.868	41.764	
		16.600	2.91	7122.938	41.781	
		16.700	2.91	6594.411	41.819	
		16.800	2.91	5936.096	41.851	
		16.900	2.91	5289.932	41.856	
		17.000	2.91	4878.189	41.870	
		17.100	2.91	4615.765	41.915	
		17.200	2.91	4306.270	41.949	
		17.300	2.91	4128.233	41.949	
		17.400	2.91	4106.915	41.960	
		17.500	2.91	4084.809	42.008	
		17.600	2.91	4078.573	42.055	
		17.700	2.91	4077.489	42.101	
		17.800	2.91	4113.252	42.139	
		17.900	2.91	4095.058	42.145	
		18.000	2.91	4127.490	42.159	
		18.100	2.91	4127.266	42.196	
		18.200	2.91	4110.237	42.236	
		18.300	2.91	4091.720	42.282	
		18.400	2.91	4110.366	42.329	
		18.500	2.91	4110.779	42.375	
		18.600	2.91	4146.066	42.416	
		18.700	2.91	4138.807	42.435	
		18.800	2.91	4120.217	42.455	
		18.900	2.91	4130.748	42.478	
		19.000	2.91	4137.786	42.507	
		19.100	2.91	4113.609	42.554	
		19.200	2.91	4141.815	42.601	
		19.300	2.91	4179.801	42.647	
		19.400	2.91	4118.605	42.691	
		19.500	2.91	4100.309	42.725	
		19.600	2.91	4058.990	42.752	
		19.700	2.91	4065.742	42.762	
		19.800	2.91	4233.689	42.782	
		19.900	2.91	4113.091	42.830	
		20.000	2.91	4090.715	42.878	
		20.100	2.92	4099.315	42.925	
		20.200	2.92	4105.885	42.973	
		20.300	2.92	4149.232	43.020	
		20.400	2.92	4132.656	43.066	
		20.500	2.92	4066.920	43.113	
		20.600	2.92	4083.189	43.147	
		20.700	2.92	4076.924	43.149	
		20.800	2.92	4073.269	43.161	
		20.900	2.92	4124.651	43.203	
		21.000	2.92	4114.234	43.247	
		21.100	2.92	4088.016	43.293	
		21.200	2.92	4139.869	43.330	
		21.300	2.92	4076.256	43.341	
		21.400	2.92	4066.215	43.359	
		21.500	2.92	4121.335	43.392	
		21.600	2.92	4139.766	43.429	
		21.700	2.92	4071.734	43.475	
		21.800	2.92	4126.536	43.523	
		21.900	2.92	4139.804	43.570	
		22.000	2.92	4134.107	43.610	
		22.100	2.92	4103.605	43.633	
		22.200	2.92	4110.416	43.656	
		22.300	2.92	4083.573	43.676	
		22.400	2.92	4099.111	43.704	
		22.500	2.92	4113.985	43.752	
		22.600	2.92	4111.063	43.799	
		22.700	2.92	4050.415	43.846	
		22.800	2.92	4046.246	43.890	
		22.900	2.92	4121.421	43.925	
		23.000	2.92	4118.240	43.952	
		23.100	2.92	4106.485	43.961	
		23.200	2.92	4101.950	43.982	
		23.300	2.92	4083.258	44.029	
		23.400	2.92	4147.401	44.075	
		23.500	2.92	4123.634	44.119	
		23.600	2.92	4090.324	44.150	
		23.700	2.92	4111.636	44.150	
		23.800	2.92	4114.950	44.164	
		23.900	2.92	4127.475	44.210	
		24.000	2.92	4075.259	44.257	
		24.100	2.92	4109.240	44.306	
		24.200	2.92	4116.615	44.340	
		24.300	2.92	4090.018	44.346	
		24.400	2.92	4069.043	44.362	
		24.500	2.92	4066.912	44.400	
		24.600	2.92	4072.989	44.441	
		24.700	2.92	4091.781	44.489	
		24.800	2.92	4077.313	44.536	
		24.900	2.92	4014.453	44.582	
		25.000	2.92	4037.873	44.628	
		25.100	2.92	4096.139	44.674	
		25.200	2.92	4077.440	44.712	
		25.300	2.92	4071.371	44.735	
		25.400	2.92	4055.388	44.757	
		25.500	2.92	4042.752	44.779	
		25.600	2.92	4105.243	44.811	
		25.700	2.92	4070.655	44.858	
		25.800	2.92	4101.194	44.900	
		25.900	2.92	4073.389	44.930	
		26.000	2.92	4093.487	44.955	
		26.100	2.92	4100.562	44.971	
		26.200	2.92	4038.415	44.997	
		26.300	2.92	4084.446	45.044	
		26.400	2.92	4096.631	45.088	
		26.500	2.92	4079.116	45.125	
		26.600	2.92	4074.356	45.152	
		26.700	2.92	4082.340	45.158	
		26.800	2.92	4071.734	45.178	
		26.900	2.92	4076.086	45.224	
		27.000	2.92	4103.734	45.271	
		27.100	2.92	4086.356	45.318	
		27.200	2.92	4080.098	45.349	
		27.300	2.92	4090.672	45.349	
		27.400	2.92	4072.327	45.382	
		27.500	2.92	4135.966	45.470	
		27.600	2.92	4108.586	45.531	
		27.700	2.92	4054.215	45.542	
		27.800	2.92	4026.397	45.564	
		27.900	2.92	4094.055	45.603	
		28.000	2.92	4122.994	45.645	
		28.100	2.92	4060.645	45.693	
		28.200	2.92	4094.766	45.728	
		28.300	2.92	4131.079	45.741	
		28.400	2.92	4091.955	45.761	
		28.500	2.92	4069.157	45.790	
		28.600	2.92	4079.135	45.826	
		28.700	2.92	4074.545	45.873	
		28.800	2.92	4083.322	45.912	
		28.900	2.92	4105.045	45.935	
		29.000	2.92	4087.693	45.958	
		29.100	2.92	4055.956	45.978	
		29.200	2.92	4084.620	46.009	
		29.300	2.92	4103.687	46.055	
		29.400	2.92	4073.297	46.097	
		29.500	2.92	4028.325	46.130	
		29.600	2.92	4081.542	46.154	
		29.700	2.92	4108.088	46.166	
		29.800	2.92	4118.537	46.191	
		29.900	2.92	4104.084	46.237	
		30.000	2.92	4095.389	46.284	
		30.100	2.93	4104.959	46.331	
		30.200	2.93	4099.027	46.377	
		30.300	2.93	4102.509	46.422	
		30.400	2.93	4117.381	46.450	
		30.500	2.93	4123.785	46.450	
		30.600	2.93	4109.472	46.467	
		30.700	2.93	4069.370	46.509	
		30.800	2.93	4063.525	46.554	
		30.900	2.93	4098.219	46.601	
		31.000	2.93	4174.972	46.648	
		31.100	2.93	4122.603	46.694	
		31.200	2.93	4070.069	46.727	
		31.300	2.93	4086.073	46.741	
		31.400	2.93	4132.847	46.761	
		31.500	2.93	4140.468	46.789	
		31.600	2.93	4116.899	46.825	
		31.700	2.93	4112.609	46.872	
		31.800	2.93	4083.937	46.910	
		31.900	2.93	4109.824	46.935	
		32.000	2.93	4140.561	46.957	
		32.100	2.93	4091.574	46.975	
		32.200	2.93	4111.179	47.005	
		32.300	2.93	4124.962	47.050	
		32.400	2.93	4128.642	47.092	
		32.500	2.93	4096.526	47.129	
		32.600	2.93	4118.958	47.152	
		32.700	2.93	4135.656	47.158	
		32.800	2.93	4088.319	47.182	
		32.900	2.93	4122.081	47.230	
		33.000	2.93	4107.841	47.277	
		33.100	2.93	4121.352	47.323	
		33.200	2.93	4109.197	47.350	
		33.300	2.93	4077.932	47.350	
		33.400	2.93	4098.692	47.370	
		33.500	2.93	4091.643	47.414	
		33.600	2.93	4118.051	47.460	
		33.700	2.93	4121.979	47.506	
		33.800	2.93	4104.366	47.536	
		33.900	2.93	4105.672	47.545	
		34.000	2.93	4125.160	47.565	
		34.100	2.93	4110.514	47.599	
		34.200	2.93	4095.696	47.638	
		34.300	2.93	4099.801	47.684	
		34.400	2.93	4120.680	47.718	
		34.500	2.93	4108.602	47.738	
		34.600	2.93	4099.887	47.760	
		34.700	2.93	4147.343	47.785	
		34.800	2.93	4126.149	47.819	
		34.900	2.93	4106.562	47.866	
		35.000	2.93	4141.455	47.905	
		35.100	2.93	4134.964	47.934	
		35.200	2.93	4098.456	47.956	
		35.300	2.93	4086.516	47.969	
		35.400	2.93	4113.379	47.997	
		35.500	2.93	4116.379	48.044	
		35.600	2.93	4102.503	48.090	
		35.700	2.93	4129.242	48.136	
		35.800	2.93	4147.214	48.182	
		35.900	2.93	4153.868	48.226	
		36.000	2.93	4129.908	48.250	
		36.100	2.93	4079.778	48.250	
		36.200	2.93	4077.407	48.272	
		36.300	2.93	4107.993	48.317	
		36.400	2.93	4100.231	48.362	
		36.500	2.93	4101.521	48.407	
		36.600	2.93	4110.555	48.435	
		36.700	2.93	4114.320	48.445	
		36.800	2.93	4135.596	48.466	
		36.900	2.93	4121.662	48.500	
		37.000	2.93	4129.729	48.525	
		37.100	2.93	4124.799	48.541	
		37.200	2.93	4096.204	48.563	
		37.300	2.93	4119.162	48.591	
		37.400	2.93	4131.773	48.628	
		37.500	2.93	4141.661	48.674	
		37.600	2.93	4143.660	48.721	
		37.700	2.93	4128.137	48.767	
		37.800	2.93	4103.025	48.805	
		37.900	2.93	4050.480	48.835	
		38.000	2.93	4100.983	48.856	
		38.100	2.93	4129.673	48.869	
		38.200	2.93	4107.753	48.894	
		38.300	2.93	4139.237	48.931	
		38.400	2.93	4154.388	48.953	
		38.500	2.93	4122.416	48.962	
		38.600	2.93	4107.153	48.989	
		38.700	2.93	4123.196	49.036	
		38.800	2.93	4104.834	49.082	
		38.900	2.93	4118.346	49.127	
		39.000	2.93	4088.970	49.150	
		39.100	2.93	4090.094	49.150	
		39.200	2.93	4130.540	49.173	
		39.300	2.93	4131.401	49.221	
		39.400	2.93	4126.261	49.245	
		39.500	2.93	4106.842	49.248	
		39.600	2.93	4107.813	49.271	
		39.700	2.93	4118.223	49.312	
		39.800	2.93	4116.229	49.357	
		39.900	2.93	4121.610	49.405	
		40.000	2.93	4112.034	49.434	
		40.100	2.94	4082.479	49.445	
		40.200	2.94	4104.871	49.467	
		40.300	2.94	4065.313	49.500	
		40.400	2.94	4068.358	49.539	
		40.500	2.94	4108.011	49.585	
		40.600	2.94	4085.243	49.618	
		40.700	2.94	4104.443	49.640	
		40.800	2.94	4147.438	49.662	
		40.900	2.94	4149.466	49.685	
		41.000	2.94	4132.059	49.721	
		41.100	2.94	4118.851	49.769	
		41.200	2.94	4114.724	49.807	
		41.300	2.94	4117.703	49.836	
		41.400	2.94	4107.576	49.857	
		41.500	2.94	4094.845	49.871	
		41.600	2.94	4102.101	49.897	
		41.700	2.94	4128.921	49.934	
		41.800	2.94	4142.836	49.953	
		41.900	2.94	4117.413	49.960	
		42.000	2.94	4087.197	49.988	
		42.100	2.94	4128.459	50.035	
		42.200	2.94	4141.837	50.082	
		42.300	2.94	4127.370	50.131	
		42.400	2.94	4115.154	50.178	
		42.500	2.94	4099.311	50.225	
		42.600	2.94	4121.068	50.272	
		42.700	2.94	4119.633	50.319	
		42.800	2.94	4123.329	50.367	
		42.900	2.94	4133.576	50.415	
		43.000	2.94	4144.089	50.462	
		43.100	2.94	4147.408	50.508	
		43.200	2.94	4135.001	50.554	
		43.300	2.94	4128.878	50.601	
		43.400	2.94	4122.564	50.647	
		43.500	2.94	4140.915	50.693	
		43.600	2.94	4161.256	50.739	
		43.700	2.94	4129.912	50.786	
		43.800	2.94	4120.361	50.818	
		43.900	2.94	4131.346	50.840	
		44.000	2.94	4261.288	50.862	
		44.100	2.94	4665.968	50.883	
		44.200	2.94	5203.436	50.930	
		44.300	2.94	5846.153	50.995	
		44.400	2.94	6478.382	51.068	
		44.500	2.94	6757.913	51.148	
		44.600	2.94	6696.645	51.202	
		44.700	2.94	6284.675	51.236	
		44.800	2.94	5633.643	51.256	
		44.900	2.94	5022.281	51.266	
		45.000	2.94	4639.147	51.298	
		45.100	2.94	4359.947	51.345	
		45.200	2.94	4128.528	51.392	
		45.300	2.94	4037.312	51.438	
		45.400	2.94	4005.156	51.486	
		45.500	2.94	3970.427	51.534	
		45.600	2.94	3981.516	51.581	
		45.700	2.94	4009.110	51.628	
		45.800	2.94	4028.709	51.675	
		45.900	2.94	4033.137	51.722	
		46.000	2.94	4007.477	51.768	
		46.100	2.94	3991.917	51.814	
		46.200	2.94	3971.205	51.838	
		46.300	2.94	3987.851	51.846	
		46.400	2.94	3976.678	51.872	
		46.500	2.94	3953.909	51.909	
		46.600	2.94	3950.287	51.953	
		46.700	2.94	3958.542	52.000	
		46.800	2.94	3997.707	52.048	
		46.900	2.94	4008.469	52.096	
		47.000	2.94	3992.291	52.145	
		47.100	2.94	3958.882	52.193	
		47.200	2.94	3990.559	52.240	
		47.300	2.94	4031.078	52.288	
		47.400	2.94	4021.704	52.335	
		47.500	2.94	4009.106	52.382	
		47.600	2.94	4027.510	52.429	
		47.700	2.94	4034.426	52.477	
		47.800	2.94	4014.728	52.524	
		47.900	2.94	4007.870	52.571	
		48.000	2.94	4006.561	52.619	
		48.100	2.94	4004.677	52.667	
		48.200	2.94	4000.129	52.715	
		48.300	2.94	3975.436	52.763	
		48.400	2.94	3969.077	52.811	
		48.500	2.94	3987.507	52.860	
		48.600	2.94	4004.863	52.909	
		48.700	2.94	4008.044	52.958	
		48.800	2.94	3958.684	53.000	
		48.900	2.94	3953.397	53.037	
		49.000	2.94	3984.817	53.055	
		49.100	2.94	3999.972	53.064	
		49.200	2.94	3964.312	53.098	
		49.300	2.94	3956.909	53.146	
		49.400	2.94	3979.764	53.193	
		49.500	2.94	3997.623	53.241	
		49.600	2.94	3992.884	53.288	
		49.700	2.94	3977.562	53.335	
		49.800	2.94	3960.970	53.382	
		49.900	2.94	3941.822	53.430	
		50.000	2.94	4065.953	53.477	
		50.100	2.95	4511.118	53.522	
		50.200	2.95	5497.232	53.568	
		50.300	2.95	7331.933	53.613	
		50.400	2.95	9069.099	53.659	
		50.500	2.95	9362.642	53.705	
		50.600	2.95	8467.523	53.752	
		50.700	2.95	7329.575	53.799	
		50.800	2.95	6261.993	53.826	
		50.900	2.95	5305.485	53.844	
		51.000	2.95	4656.684	53.867	
		51.100	2.95	4306.083	53.894	
		51.200	2.95	4102.090	53.935	
		51.300	2.95	3998.779	53.982	
		51.400	2.95	3935.985	54.030	
		51.500	2.95	3907.940	54.079	
		51.600	2.95	3915.711	54.127	
		51.700	2.95	3923.405	54.175	
		51.800	2.95	3934.666	54.223	
		51.900	2.95	3974.406	54.271	
		52.000	2.95	3997.565	54.308	
		52.100	2.95	3984.653	54.340	
		52.200	2.95	3981.092	54.360	
		52.300	2.95	3984.670	54.373	
		52.400	2.95	3977.018	54.411	
		52.500	2.95	3974.406	54.458	
		52.600	2.95	3961.001	54.506	
		52.700	2.95	3962.746	54.553	
		52.800	2.95	3969.457	54.601	
		52.900	2.95	3956.769	54.650	
		53.000	2.95	3944.272	54.699	
		53.100	2.95	3958.327	54.747	
		53.200	2.95	3988.500	54.792	
		53.300	2.95	3966.773	54.836	
		53.400	2.95	3927.810	54.851	
		53.500	2.95	3906.534	54.852	
		53.600	2.95	3898.927	54.919	
		53.700	2.95	3868.539	55.012	
		53.800	2.95	3864.335	55.076	
		53.900	2.95	3913.781	55.126	
		54.000	2.95	3964.340	55.143	
		54.100	2.95	3998.208	55.148	
		54.200	2.95	3995.455	55.179	
		54.300	2.95	3997.099	55.220	
		54.400	2.95	4029.255	55.267	
		54.500	2.95	4016.125	55.316	
		54.600	2.95	3979.238	55.365	
		54.700	2.95	3964.065	55.413	
		54.800	2.95	3966.902	55.435	
		54.900	2.95	3977.063	55.447	
		55.000	2.95	3979.229	55.474	
		55.100	2.95	3964.882	55.509	
		55.200	2.95	4009.290	55.552	
		55.300	2.95	4010.468	55.600	
		55.400	2.95	3973.302	55.647	
		55.500	2.95	3970.046	55.694	
		55.600	2.95	3982.104	55.722	
		55.700	2.95	3994.569	55.744	
		55.800	2.95	3937.849	55.767	
		55.900	2.95	3870.756	55.791	
		56.000	2.95	3855.573	55.832	
		56.100	2.95	3850.211	55.879	
		56.200	2.95	3865.478	55.926	
		56.300	2.95	3912.440	55.973	
		56.400	2.95	3946.520	56.021	
		56.500	2.95	3953.290	56.068	
		56.600	2.95	3968.183	56.106	
		56.700	2.95	3978.842	56.141	
		56.800	2.95	3959.466	56.158	
		56.900	2.95	3970.749	56.169	
		57.000	2.95	3945.605	56.207	
		57.100	2.95	3974.187	56.254	
		57.200	2.95	4006.047	56.301	
		57.300	2.95	4038.928	56.348	
		57.400	2.95	4004.758	56.394	
		57.500	2.95	3967.686	56.438	
		57.600	2.95	3973.667	56.450	
		57.700	2.95	3979.418	56.451	
		57.800	2.95	3991.642	56.487	
		57.900	2.95	4014.465	56.534	
		58.000	2.95	4006.944	56.581	
		58.100	2.95	4009.196	56.628	
		58.200	2.95	3988.229	56.643	
		58.300	2.95	3953.818	56.649	
		58.400	2.95	3954.648	56.681	
		58.500	2.95	3975.023	56.721	
		58.600	2.95	3993.551	56.766	
		58.700	2.95	3985.260	56.813	
		58.800	2.95	3961.248	56.860	
		58.900	2.95	3970.392	56.907	
		59.000	2.95	4000.754	56.930	
		59.100	2.95	3966.055	56.946	
		59.200	2.95	3974.209	56.973	
		59.300	2.95	3979.882	57.002	
		59.400	2.95	3955.744	57.045	
		59.500	2.95	3948.600	57.092	
		59.600	2.95	3972.979	57.140	
		59.700	2.95	3937.137	57.187	
		59.800	2.95	3914.855	57.217	
		59.900	2.95	3923.516	57.244	
		60.000	2.95	3916.059	57.264	
		60.100	2.96	3907.828	57.282	
		60.200	2.96	3902.819	57.323	
		60.300	2.96	3904.927	57.371	
		60.400	2.96	3926.112	57.418	
		60.500	2.96	3950.204	57.465	
		60.600	2.96	3970.813	57.505	
		60.700	2.96	3947.044	57.542	
		60.800	2.96	3940.640	57.557	
		60.900	2.96	3980.828	57.567	
		61.000	2.96	3968.492	57.607	
		61.100	2.96	3931.098	57.655	
		61.200	2.96	3964.753	57.698	
		61.300	2.96	3954.523	57.741	
		61.400	2.96	4018.996	57.752	
		61.500	2.96	3993.551	57.755	
		61.600	2.96	3971.740	57.795	
		61.700	2.96	3987.722	57.843	
		61.800	2.96	3967.065	57.891	
		61.900	2.96	3970.586	57.938	
		62.000	2.96	3978.535	57.985	
		62.100	2.96	3988.238	58.032	
		62.200	2.96	3976.453	58.045	
		62.300	2.96	3953.874	58.049	
		62.400	2.96	3934.073	58.083	
		62.500	2.96	3933.312	58.124	
		62.600	2.96	3941.998	58.171	
		62.700	2.96	3932.852	58.219	
		62.800	2.96	3953.187	58.237	
		62.900	2.96	3992.424	58.248	
		63.000	2.96	4047.422	58.277	
		63.100	2.96	4302.870	58.309	
		63.200	2.96	4565.442	58.353	
		63.300	2.96	4801.205	58.398	
		63.400	2.96	4808.660	58.444	
		63.500	2.96	4621.250	58.490	
		63.600	2.96	4391.560	58.519	
		63.700	2.96	4143.599	58.546	
		63.800	2.96	4037.091	58.565	
		63.900	2.96	4396.246	58.583	
		64.000	2.96	4921.997	58.625	
		64.100	2.96	5938.520	58.673	
		64.200	2.96	6753.787	58.720	
		64.300	2.96	6986.180	58.768	
		64.400	2.96	6763.243	58.807	
		64.500	2.96	6210.155	58.844	
		64.600	2.96	5503.086	58.855	
		64.700	2.96	4888.922	58.862	
		64.800	2.96	4454.507	58.903	
		64.900	2.96	4190.998	58.950	
		65.000	2.96	4096.792	58.998	
		65.100	2.96	4053.413	59.046	
		65.200	2.96	3972.172	59.095	
		65.300	2.96	3929.955	59.143	
		65.400	2.96	3914.731	59.150	
		65.500	2.96	3821.375	59.150	
		65.600	2.96	3710.714	59.188	
		65.700	2.96	3619.353	59.232	
		65.800	2.96	3577.261	59.279	
		65.900	2.96	3600.694	59.326	
		66.000	2.96	3591.462	59.375	
		66.100	2.96	3661.004	59.423	
		66.200	2.96	3618.418	59.438	
		66.300	2.96	3648.597	59.448	
		66.400	2.96	3633.356	59.482	
		66.500	2.96	3593.955	59.520	
		66.600	2.96	3599.379	59.566	
		66.700	2.96	3623.126	59.615	
		66.800	2.96	3658.672	59.663	
		66.900	2.96	3657.245	59.711	
		67.000	2.96	3578.340	59.731	
		67.100	2.96	3600.028	59.748	
		67.200	2.96	3651.907	59.774	
		67.300	2.96	3690.719	59.802	
		67.400	2.96	3719.147	59.848	
		67.500	2.96	3720.127	59.896	
		67.600	2.96	3699.569	59.923	
		67.700	2.96	3684.440	59.947	
		67.800	2.96	3717.690	59.969	
		67.900	2.96	3777.652	59.991	
		68.000	2.96	3841.146	60.036	
		68.100	2.96	3915.661	60.084	
		68.200	2.96	4000.131	60.132	
		68.300	2.96	4054.993	60.181	
		68.400	2.96	4054.434	60.228	
		68.500	2.96	4042.206	60.276	
		68.600	2.96	4018.480	60.323	
		68.700	2.96	4075.366	60.371	
		68.800	2.96	4019.297	60.417	
		68.900	2.96	3971.136	60.464	
		69.000	2.96	4024.837	60.513	
		69.100	2.96	4041.552	60.561	
		69.200	2.96	4010.563	60.608	
		69.300	2.96	3980.598	60.655	
		69.400	2.96	3986.162	60.702	
		69.500	2.96	3984.236	60.749	
		69.600	2.96	3953.848	60.797	
		69.700	2.96	3936.985	60.844	
		69.800	2.96	3946.288	60.893	
		69.900	2.96	3967.186	60.941	
		70.000	2.96	3986.123	60.988	
		70.100	2.97	3990.585	61.034	
		70.200	2.97	3990.447	61.082	
		70.300	2.97	3954.824	61.129	
		70.400	2.97	3949.357	61.176	
		70.500	2.97	3956.945	61.225	
		70.600	2.97	3994.307	61.272	
		70.700	2.97	3976.289	61.320	
		70.800	2.97	3966.530	61.367	
		70.900	2.97	3980.703	61.414	
		71.000	2.97	3940.445	61.461	
		71.100	2.97	3889.763	61.508	
		71.200	2.97	3821.227	61.555	
		71.300	2.97	3707.452	61.603	
		71.400	2.97	3620.707	61.651	
		71.500	2.97	3598.240	61.699	
		71.600	2.97	3601.172	61.747	
		71.700	2.97	3609.712	61.796	
		71.800	2.97	3597.110	61.843	
		71.900	2.97	3607.584	61.891	
		72.000	2.97	3639.821	61.939	
		72.100	2.97	3620.395	61.987	
		72.200	2.97	3659.282	62.034	
		72.300	2.97	3670.780	62.082	
		72.400	2.97	3678.012	62.130	
		72.500	2.97	3726.140	62.178	
		72.600	2.97	3767.038	62.226	
		72.700	2.97	3812.544	62.273	
		72.800	2.97	3902.722	62.320	
		72.900	2.97	4026.870	62.367	
		73.000	2.97	4054.584	62.415	
		73.100	2.97	4024.996	62.463	
		73.200	2.97	4023.105	62.511	
		73.300	2.97	4018.953	62.558	
		73.400	2.97	4007.434	62.606	
		73.500	2.97	3991.694	62.654	
		73.600	2.97	4033.792	62.701	
		73.700	2.97	4077.848	62.748	
		73.800	2.97	4022.885	62.750	
		73.900	2.97	3970.072	62.750	
		74.000	2.97	3928.885	62.795	
		74.100	2.97	3853.031	62.841	
		74.200	2.97	3797.565	62.889	
		74.300	2.97	3687.668	62.937	
		74.400	2.97	3579.732	62.986	
		74.500	2.97	3617.380	63.034	
		74.600	2.97	3603.239	63.082	
		74.700	2.97	3582.505	63.129	
		74.800	2.97	3638.110	63.177	
		74.900	2.97	3622.404	63.224	
		75.000	2.97	3626.483	63.271	
		75.100	2.97	3641.892	63.319	
		75.200	2.97	3707.364	63.367	
		75.300	2.97	3737.810	63.415	
		75.400	2.97	3777.046	63.462	
		75.500	2.97	3805.098	63.510	
		75.600	2.97	3898.140	63.530	
		75.700	2.97	4019.711	63.549	
		75.800	2.97	4067.524	63.575	
		75.900	2.97	4050.587	63.601	
		76.000	2.97	4037.693	63.670	
		76.100	2.97	4034.469	63.739	
		76.200	2.97	3998.365	63.815	
		76.300	2.97	3991.702	63.890	
		76.400	2.97	4028.022	63.920	
		76.500	2.97	4052.092	63.950	
		76.600	2.97	4004.850	63.965	
		76.700	2.97	3987.335	63.980	
		76.800	2.97	3980.177	64.027	
		76.900	2.97	3945.190	64.074	
		77.000	2.97	3914.707	64.121	
		77.100	2.97	3909.027	64.169	
		77.200	2.97	3915.730	64.217	
		77.300	2.97	3947.590	64.264	
		77.400	2.97	3963.365	64.310	
		77.500	2.97	3965.041	64.356	
		77.600	2.97	3975.098	64.403	
		77.700	2.97	3981.726	64.449	
		77.800	2.97	3922.236	64.449	
		77.900	2.97	3801.818	64.450	
		78.000	2.97	3698.852	64.496	
		78.100	2.97	3585.578	64.541	
		78.200	2.97	3546.002	64.588	
		78.300	2.97	3547.156	64.635	
		78.400	2.97	3565.617	64.723	
		78.500	2.97	3609.727	64.808	
		78.600	2.97	3606.656	64.829	
		78.700	2.97	3595.279	64.851	
		78.800	2.97	3606.138	64.886	
		78.900	2.97	3647.342	64.922	
		79.000	2.97	3649.853	64.970	
		79.100	2.97	3631.551	65.019	
		79.200	2.97	3649.268	65.067	
		79.300	2.97	3682.991	65.116	
		79.400	2.97	3676.389	65.164	
		79.500	2.97	3703.150	65.211	
		79.600	2.97	3751.220	65.231	
		79.700	2.97	3749.512	65.251	
		79.800	2.97	3717.071	65.277	
		79.900	2.97	3716.942	65.304	
		80.000	2.97	3704.489	65.352	
		80.100	2.98	3661.776	65.400	
		80.200	2.98	3661.120	65.448	
		80.300	2.98	3664.193	65.496	
		80.400	2.98	3663.598	65.544	
		80.500	2.98	3651.137	65.592	
		80.600	2.98	3655.384	65.640	
		80.700	2.98	3702.956	65.687	
		80.800	2.98	3655.208	65.719	
		80.900	2.98	3676.875	65.750	
		81.000	2.98	3688.261	65.764	
		81.100	2.98	3707.061	65.781	
		81.200	2.98	3735.476	65.829	
		81.300	2.98	3731.803	65.876	
		81.400	2.98	3736.806	65.924	
		81.500	2.98	3821.276	65.973	
		81.600	2.98	3892.052	66.020	
		81.700	2.98	4001.663	66.067	
		81.800	2.98	4043.042	66.110	
		81.900	2.98	4048.002	66.150	
		82.000	2.98	4042.103	66.153	
		82.100	2.98	4039.197	66.163	
		82.200	2.98	4018.256	66.257	
		82.300	2.98	4008.904	66.347	
		82.400	2.98	4055.427	66.396	
		82.500	2.98	4048.559	66.442	
		82.600	2.98	4038.114	66.446	
		82.700	2.98	4013.025	66.453	
		82.800	2.98	3989.162	66.495	
		82.900	2.98	4023.734	66.537	
		83.000	2.98	3972.240	66.584	
		83.100	2.98	3958.598	66.632	
		83.200	2.98	3988.520	66.679	
		83.300	2.98	4002.796	66.724	
		83.400	2.98	3968.383	66.738	
		83.500	2.98	3980.764	66.753	
		83.600	2.98	3985.320	66.784	
		83.700	2.98	3988.629	66.816	
		83.800	2.98	3975.799	66.863	
		83.900	2.98	3950.956	66.910	
		84.000	2.98	3935.354	66.959	
		84.100	2.98	3926.070	67.005	
		84.200	2.98	3916.356	67.028	
		84.300	2.98	3924.894	67.052	
		84.400	2.98	3940.485	67.074	
		84.500	2.98	3938.261	67.098	
		84.600	2.98	3940.041	67.145	
		84.700	2.98	3965.398	67.193	
		84.800	2.98	4084.354	67.239	
		84.900	2.98	4021.731	67.286	
		85.000	2.98	3998.382	67.335	
		85.100	2.98	4035.939	67.383	
		85.200	2.98	3942.308	67.430	
		85.300	2.98	3862.921	67.476	
		85.400	2.98	3795.861	67.515	
		85.500	2.98	3685.080	67.550	
		85.600	2.98	3695.215	67.556	
		85.700	2.98	3974.450	67.568	
		85.800	2.98	4201.079	67.615	
		85.900	2.98	4024.016	67.663	
		86.000	2.98	3965.120	67.711	
		86.100	2.98	3985.354	67.758	
		86.200	2.98	4012.435	67.806	
		86.300	2.98	4013.249	67.848	
		86.400	2.98	3994.619	67.849	
		86.500	2.98	3995.330	67.856	
		86.600	2.98	4014.771	67.900	
		86.700	2.98	4027.846	67.945	
		86.800	2.98	4008.801	67.992	
		86.900	2.98	3962.071	68.038	
		87.000	2.98	3957.016	68.086	
		87.100	2.98	3970.882	68.129	
		87.200	2.98	3952.344	68.140	
		87.300	2.98	3942.918	68.155	
		87.400	2.98	3945.465	68.188	
		87.500	2.98	3965.924	68.223	
		87.600	2.98	3998.569	68.271	
		87.700	2.98	3982.923	68.319	
		87.800	2.98	3946.464	68.367	
		87.900	2.98	3965.043	68.415	
		88.000	2.98	3951.138	68.464	
		88.100	2.98	3918.728	68.508	
		88.200	2.98	3908.739	68.531	
		88.300	2.98	3918.814	68.553	
		88.400	2.98	3917.086	68.575	
		88.500	2.98	3903.736	68.601	
		88.600	2.98	3866.806	68.648	
		88.700	2.98	3808.833	68.696	
		88.800	2.98	3756.185	68.744	
		88.900	2.98	3698.525	68.791	
		89.000	2.98	3649.627	68.839	
		89.100	2.98	3630.341	68.884	
		89.200	2.98	3593.970	68.920	
		89.300	2.98	3585.728	68.951	
		89.400	2.98	3606.237	68.961	
		89.500	2.98	3633.421	68.976	
		89.600	2.98	3635.290	69.023	
		89.700	2.98	3678.826	69.070	
		89.800	2.98	3692.628	69.118	
		89.900	2.98	3735.837	69.165	
		90.000	2.98	3731.496	69.214	
		90.100	2.99	3733.667	69.262	
		90.200	2.99	3711.260	69.310	
		90.300	2.99	3700.539	69.349	
		90.400	2.99	3901.293	69.349	
		90.500	2.99	4252.259	69.358	
		90.600	2.99	4451.552	69.400	
		90.700	2.99	4460.967	69.443	
		90.800	2.99	4487.044	69.490	
		90.900	2.99	4505.539	69.537	
		91.000	2.99	4521.251	69.582	
		91.100	2.99	4614.807	69.622	
		91.200	2.99	4653.920	69.637	
		91.300	2.99	4572.728	69.655	
		91.400	2.99	4564.089	69.684	
		91.500	2.99	4548.185	69.716	
		91.600	2.99	4456.763	69.763	
		91.700	2.99	4417.349	69.806	
		91.800	2.99	4412.148	69.831	
		91.900	2.99	4428.198	69.853	
		92.000	2.99	4424.018	69.869	
		92.100	2.99	4439.880	69.891	
		92.200	2.99	4438.372	69.939	
		92.300	2.99	4463.722	69.986	
		92.400	2.99	4498.591	70.033	
		92.500	2.99	4525.194	70.080	
		92.600	2.99	4577.030	70.128	
		92.700	2.99	4671.040	70.174	
		92.800	2.99	4787.967	70.216	
		92.900	2.99	4832.053	70.250	
		93.000	2.99	5023.837	70.254	
		93.100	2.99	5551.376	70.268	
		93.200	2.99	6772.518	70.318	
		93.300	2.99	8774.649	70.377	
		93.400	3.00	10564.549	70.468	
		93.500	3.01	11716.253	70.549	
		93.600	3.03	12162.122	70.599	
		93.700	3.07	12160.803	70.648	
		93.800	3.13	11639.034	70.695	
		93.900	3.20	10715.056	70.741	
		94.000	3.29	10087.854	70.787	
		94.100	3.40	9870.912	70.834	
		94.200	3.52	9794.771	70.881	
		94.300	3.65	9639.882	70.921	
		94.400	3.80	9243.256	70.937	
		94.500	3.96	8661.001	70.956	
		94.600	4.12	8137.098	70.984	
		94.700	4.30	7696.210	71.016	
		94.800	4.49	7279.890	71.063	
		94.900	4.68	7054.411	71.110	
		95.000	4.88	6980.160	71.157	
		95.100	5.09	7001.382	71.204	
		95.200	5.30	7034.962	71.250	
		95.300	5.52	7106.526	71.297	
		95.400	5.75	7202.697	71.344	
		95.500	5.98	7240.844	71.391	
		95.600	6.22	7306.498	71.438	
		95.700	6.47	7345.888	71.485	
		95.800	6.72	7371.136	71.531	
		95.900	6.98	7418.579	71.578	
		96.000	7.24	7451.924	71.624	
		96.100	7.51	7455.840	71.670	
		96.200	7.78	7452.350	71.716	
		96.300	8.06	7419.976	71.763	
		96.400	8.34	7366.101	71.812	
		96.500	8.63	7329.848	71.859	
		96.600	8.92	7312.296	71.906	
		96.700	9.22	7319.983	71.953	
		96.800	9.52	7307.334	72.000	
		96.900	9.82	7269.014	72.047	
		97.000	10.13	7268.087	72.093	
		97.100	10.45	7301.385	72.140	
		97.200	10.77	7322.416	72.187	
		97.300	11.10	7324.806	72.233	
		97.400	11.42	7286.991	72.281	
		97.500	11.75	7269.222	72.336	
		97.600	12.09	7268.646	72.412	
		97.700	12.43	7272.953	72.486	
		97.800	12.77	7267.133	72.553	
		97.900	13.12	7247.104	72.615	
		98.000	13.47	7235.125	72.662	
		98.100	13.82	7256.850	72.715	
		98.200	14.18	7284.511	72.782	
		98.300	14.55	7272.029	72.851	
		98.400	14.94	7129.532	72.928	
		98.500	15.34	6423.237	72.995	
		98.600	15.77	4946.554	73.040	
		98.700	16.22	3704.413	73.086	
		98.800	16.69	3451.445	73.132	
		98.900	17.18	3794.976	73.179	
		99.000	17.68	4035.501	73.226	
		99.100	18.19	3752.875	73.273	
		99.200	18.71	3925.339	73.320	
		99.300	19.23	4012.828	73.367	
		99.400	19.76	4078.740	73.413	
		99.500	20.31	4116.141	73.474	
		99.600	20.86	4186.205	73.565	
		99.700	21.41	4217.528	73.644	
		99.800	21.98	4186.532	73.697	
		99.900	22.54	4245.876	73.748	
		100.000	23.11	4327.821	73.795	
		100.100	23.69	4385.005	73.843	
		100.200	24.26	4342.041	73.890	
		100.300	24.85	4307.333	73.938	
		100.400	25.42	4340.051	73.985	
		100.500	26.00	4435.600	74.031	
		100.600	26.59	4433.579	74.078	
		100.700	27.17	4346.928	74.124	
		100.800	27.76	4335.692	74.171	
		100.900	28.34	4317.236	74.218	
		101.000	28.93	4355.432	74.264	
		101.100	29.52	4459.100	74.310	
		101.200	30.10	4499.614	74.355	
		101.300	30.69	4500.781	74.400	
		101.400	31.27	4493.171	74.445	
		101.500	31.86	4404.956	74.490	
		101.600	32.44	4375.286	74.535	
		101.700	33.03	4319.828	74.580	
		101.800	33.62	4341.783	74.627	
		101.900	34.21	4357.579	74.674	
		102.000	34.81	4430.790	74.722	
		102.100	35.41	4525.225	74.768	
		102.200	36.02	4569.663	74.814	
		102.300	36.64	4662.916	74.845	
		102.400	37.26	4786.372	74.848	
		102.500	37.91	4856.095	74.864	
		102.600	38.56	4894.993	74.904	
		102.700	39.21	4822.709	74.933	
		102.800	39.87	4876.307	74.943	
		102.900	40.52	4952.202	74.962	
		103.000	41.18	4956.468	74.996	
		103.100	41.83	4821.183	75.034	
		103.200	42.48	4828.286	75.081	
		103.300	43.14	4863.249	75.118	
		103.400	43.79	4877.390	75.137	
		103.500	44.43	4819.228	75.158	
		103.600	45.09	4783.338	75.182	
		103.700	45.74	4951.843	75.206	
		103.800	46.41	5098.694	75.233	
		103.900	47.08	5025.410	75.256	
		104.000	47.76	4899.311	75.274	
		104.100	48.44	4872.845	75.298	
		104.200	49.12	4958.372	75.330	
		104.300	49.79	5074.093	75.350	
		104.400	50.45	5087.476	75.350	
		104.500	51.11	4951.007	75.353	
		104.600	51.76	4759.324	75.363	
		104.700	52.40	4675.465	75.384	
		104.800	53.05	4798.287	75.425	
		104.900	53.69	4935.617	75.450	
		105.000	54.33	4825.344	75.450	
		105.100	54.97	4618.916	75.450	
		105.200	55.61	4668.297	75.450	
		105.300	56.24	4738.263	75.467	
		105.400	56.87	4698.316	75.514	
		105.500	57.49	4590.810	75.544	
		105.600	58.12	4576.235	75.548	
		105.700	58.75	4597.674	75.550	
		105.800	59.36	4598.143	75.550	
		105.900	59.97	4543.001	75.565	
		106.000	60.58	4510.944	75.604	
		106.100	61.19	4458.210	75.632	
		106.200	61.79	4393.531	75.643	
		106.300	62.39	4403.290	75.649	
		106.400	62.99	4461.835	75.649	
		106.500	63.59	4437.121	75.660	
		106.600	64.19	4402.606	75.688	
		106.700	64.79	4414.728	75.713	
		106.800	65.39	4413.739	75.736	
		106.900	65.99	4466.735	75.749	
		107.000	66.60	4382.534	75.749	
		107.100	67.21	4305.855	75.756	
		107.200	67.81	4345.411	75.772	
		107.300	68.42	4365.694	75.795	
		107.400	69.03	4421.205	75.829	
		107.500	69.64	4473.277	75.849	
		107.600	70.25	4481.606	75.849	
		107.700	70.86	4478.641	75.849	
		107.800	71.48	4464.042	75.849	
		107.900	72.09	4469.804	75.852	
		108.000	72.71	4460.559	75.859	
		108.100	73.33	4440.572	75.881	
		108.200	73.95	4458.874	75.924	
		108.300	74.57	4503.205	75.950	
		108.400	75.19	4556.923	75.950	
		108.500	75.81	4591.274	75.950	
		108.600	76.44	4568.144	75.950	
		108.700	77.06	4505.743	75.950	
		108.800	77.68	4526.662	75.950	
		108.900	78.30	4609.019	75.966	
		109.000	78.92	4602.273	76.004	
		109.100	79.54	4553.994	76.030	
		109.200	80.15	4490.990	76.043	
		109.300	80.76	4283.427	76.050	
		109.400	81.37	4194.739	76.050	
		109.500	81.98	4498.181	76.050	
		109.600	82.58	4801.046	76.050	
		109.700	83.18	4874.673	76.050	
		109.800	83.80	4932.750	76.050	
		109.900	84.43	5210.498	76.059	
		110.000	85.08	5362.480	76.079	
		110.100	85.75	5423.687	76.103	
		110.200	86.43	5377.397	76.133	
		110.300	87.13	5136.088	76.150	
		110.400	87.82	4884.893	76.150	
		110.500	88.52	4833.669	76.150	
		110.600	89.21	4965.010	76.150	
		110.700	89.89	5093.515	76.152	
		110.800	90.57	5110.965	76.158	
		110.900	91.24	4906.501	76.182	
		111.000	91.91	4734.764	76.226	
		111.100	92.57	4815.548	76.250	
		111.200	93.23	4898.310	76.250	
		111.300	93.88	4873.217	76.250	
		111.400	94.54	4733.917	76.250	
		111.500	95.18	4657.715	76.250	
		111.600	95.82	4668.383	76.250	
		111.700	96.46	4631.733	76.268	
		111.800	97.09	4628.879	76.306	
		111.900	97.71	4725.274	76.331	
		112.000	98.34	4760.452	76.343	
		112.100	98.96	4717.817	76.363	
		112.200	99.59	4682.630	76.392	
		112.300	100.22	4746.483	76.418	
		112.400	100.87	4889.236	76.439	
		112.500	101.52	5008.269	76.450	
		112.600	102.18	5108.777	76.450	
		112.700	102.86	5406.812	76.458	
		112.800	103.56	5758.857	76.476	
		112.900	104.27	5598.320	76.500	
		113.000	104.99	5354.984	76.533	
		113.100	105.72	5447.842	76.555	
		113.200	106.47	5532.415	76.566	
		113.300	107.21	5485.722	76.590	
		113.400	107.94	5322.157	76.630	
		113.500	108.66	5258.570	76.650	
		113.600	109.38	5316.320	76.650	
		113.700	110.09	5380.000	76.650	
		113.800	110.79	5410.046	76.651	
		113.900	111.49	5404.989	76.675	
		114.000	112.18	5283.300	76.722	
		114.100	112.87	5069.789	76.747	
		114.200	113.54	4931.065	76.749	
		114.300	114.21	4912.691	76.771	
		114.400	114.87	5014.127	76.813	
		114.500	115.54	5258.370	76.838	
		114.600	116.21	5388.712	76.846	
		114.700	116.89	5207.100	76.850	
		114.800	117.57	5040.742	76.850	
		114.900	118.24	5056.471	76.865	
		115.000	118.92	5105.367	76.894	
		115.100	119.60	5223.729	76.919	
		115.200	120.29	5499.874	76.940	
		115.300	120.99	5544.950	76.950	
		115.400	121.70	5561.182	76.950	
		115.500	122.44	5879.979	76.950	
		115.600	123.20	6278.307	76.950	
		115.700	123.99	6565.012	76.957	
		115.800	124.81	6702.261	76.971	
		115.900	125.65	6893.830	76.996	
		116.000	126.52	7074.920	77.032	
		116.100	127.41	7180.852	77.052	
		116.200	128.32	7287.352	77.058	
		116.300	129.26	7372.632	77.084	
		116.400	130.21	7395.058	77.129	
		116.500	131.18	7398.978	77.149	
		116.600	132.16	7485.108	77.149	
		116.700	133.16	7609.752	77.149	
		116.800	134.17	7630.242	77.149	
		116.900	135.19	7721.320	77.172	
		117.000	136.23	7794.814	77.214	
		117.100	137.27	7818.626	77.238	
		117.200	138.31	7885.230	77.246	
		117.300	139.36	7902.853	77.249	
		117.400	140.39	7914.909	77.249	
		117.500	141.43	7927.378	77.266	
		117.600	142.46	7945.916	77.296	
		117.700	143.50	7952.845	77.335	
		117.800	144.55	7889.382	77.382	
		117.900	145.59	7844.757	77.416	
		118.000	146.64	7877.229	77.439	
		118.100	147.69	7916.837	77.460	
		118.200	148.74	7982.094	77.479	
		118.300	149.78	8073.784	77.504	
		118.400	150.82	8218.353	77.536	
		118.500	151.87	8359.064	77.556	
		118.600	152.90	8377.546	77.569	
		118.700	153.93	8366.337	77.595	
		118.800	154.96	8348.078	77.633	
		118.900	155.98	8389.150	77.653	
		119.000	157.01	8399.483	77.659	
		119.100	158.05	8321.111	77.687	
		119.200	159.10	8178.962	77.730	
		119.300	160.18	8056.577	77.750	
		119.400	161.25	8113.725	77.750	
		119.500	162.32	8157.843	77.775	
		119.600	163.39	8077.356	77.819	
		119.700	164.44	7905.917	77.865	
		119.800	165.47	7730.817	77.912	
		119.900	166.49	7610.563	77.937	
		120.000	167.49	7542.719	77.946	
		120.100	168.48	7515.941	77.969	
		120.200	169.46	7492.830	78.001	
		120.300	170.43	7572.101	78.025	
		120.400	171.41	7731.872	78.042	
		120.500	172.41	7756.780	78.065	
		120.600	173.41	7720.869	78.090	
		120.700	174.43	7816.567	78.115	
		120.800	175.46	8005.702	78.140	
		120.900	176.50	8300.476	78.162	
		121.000	177.53	8450.202	78.182	
		121.100	178.56	8442.511	78.208	
		121.200	179.59	8501.604	78.238	
		121.300	180.62	8546.894	78.257	
		121.400	181.66	8523.816	78.270	
		121.500	182.70	8538.592	78.297	
		121.600	183.77	8509.844	78.335	
		121.700	184.86	8489.814	78.353	
		121.800	185.95	8370.583	78.357	
		121.900	187.06	8346.127	78.386	
		122.000	188.18	8485.430	78.431	
		122.100	189.29	8644.677	78.449	
		122.200	190.41	8811.832	78.449	
		122.300	191.52	8928.785	78.475	
		122.400	192.65	8963.046	78.517	
		122.500	193.77	8955.976	78.539	
		122.600	194.90	8898.888	78.546	
		122.700	196.02	8859.871	78.572	
		122.800	197.15	8873.236	78.608	
		122.900	198.28	8874.205	78.631	
		123.000	199.42	8822.393	78.644	
		123.100	200.57	8711.582	78.649	
		123.200	201.71	8779.227	78.649	
		123.300	202.84	8976.134	78.667	
		123.400	203.97	9112.266	78.696	
		123.500	205.08	9120.737	78.737	
		123.600	206.19	9080.454	78.784	
		123.700	207.31	8990.245	78.817	
		123.800	208.43	8934.287	78.841	
		123.900	209.55	8874.549	78.862	
		124.000	210.68	8853.519	78.882	
		124.100	211.80	8809.027	78.909	
		124.200	212.93	8684.841	78.939	
		124.300	214.06	8665.433	78.957	
		124.400	215.19	8808.707	78.970	
		124.500	216.33	8876.504	78.998	
		124.600	217.48	8975.566	79.036	
		124.700	218.62	9165.313	79.053	
		124.800	219.76	9238.597	79.059	
		124.900	220.90	9266.432	79.089	
		125.000	222.04	9358.859	79.134	
		125.100	223.19	9391.207	79.150	
		125.200	224.34	9394.740	79.150	
		125.300	225.49	9368.444	79.177	
		125.400	226.66	9239.875	79.221	
		125.500	227.82	9249.234	79.267	
		125.600	228.98	9373.141	79.314	
		125.700	230.13	9374.870	79.337	
		125.800	231.28	9267.953	79.347	
		125.900	232.40	9211.411	79.371	
		126.000	233.52	9106.181	79.404	
		126.100	234.62	8962.203	79.426	
		126.200	235.73	8864.520	79.444	
		126.300	236.83	8791.867	79.466	
		126.400	237.95	8712.640	79.490	
		126.500	239.07	8643.018	79.515	
		126.600	240.20	8686.360	79.541	
		126.700	241.35	8869.462	79.560	
		126.800	242.50	9157.680	79.576	
		126.900	243.66	9382.461	79.613	
		127.000	244.82	9440.630	79.660	
		127.100	245.98	9450.773	79.700	
		127.200	247.15	9461.717	79.738	
		127.300	248.32	9383.988	79.753	
		127.400	249.49	9261.985	79.758	
		127.500	250.67	9190.677	79.790	
		127.600	251.85	9031.800	79.835	
		127.700	253.04	8971.105	79.849	
		127.800	254.22	9007.854	79.849	
		127.900	255.38	8779.450	79.849	
		128.000	256.52	8395.985	79.849	
		128.100	257.64	8150.053	79.878	
		128.200	258.72	7923.910	79.920	
		128.300	259.78	7588.919	79.939	
		128.400	260.80	7175.604	79.947	
		128.500	261.76	6847.644	79.973	
		128.600	262.70	6812.293	80.007	
		128.700	263.63	7157.792	80.028	
		128.800	264.55	7592.706	80.044	
		128.900	265.49	7527.413	80.068	
		129.000	266.44	7346.645	80.096	
		129.100	267.40	7602.551	80.120	
		129.200	268.38	7829.831	80.143	
		129.300	269.34	7531.303	80.164	
		129.400	270.28	7137.204	80.184	
		129.500	271.21	7001.468	80.211	
		129.600	272.15	7126.072	80.241	
		129.700	273.09	8057.634	80.250	
		129.800	274.04	9349.511	80.250	
		129.900	275.01	10853.223	80.254	
		130.000	276.00	11811.108	80.259	
		130.100	276.99	11688.781	80.293	
		130.200	277.99	10969.118	80.337	
		130.300	278.96	10292.949	80.350	
		130.400	279.89	9821.353	80.350	
		130.500	280.75	9303.744	80.383	
		130.600	281.54	8648.786	80.430	
		130.700	282.28	7977.061	80.446	
		130.800	282.94	7272.154	80.449	
		130.900	283.50	6557.791	80.478	
		131.000	283.94	6188.553	80.517	
		131.100	284.30	7003.046	80.536	
		131.200	284.51	9128.400	80.547	
		131.300	284.66	11180.446	80.550	
		131.400	284.82	11356.353	80.550	
		131.500	285.02	11276.224	80.572	
		131.600	285.29	11670.669	80.602	
		131.700	285.63	12153.439	80.624	
		131.800	286.05	12404.074	80.644	
		131.900	286.55	12507.828	80.650	
		132.000	287.13	12567.164	80.650	
		132.100	287.79	12525.925	80.666	
		132.200	288.54	12469.260	80.688	
		132.300	289.38	12354.076	80.715	
		132.400	290.29	12199.837	80.743	
		132.500	291.27	12044.024	80.750	
		132.600	292.34	11952.379	80.750	
		132.700	293.50	11862.074	80.750	
		132.800	294.73	11807.921	80.750	
		132.900	296.04	11727.356	80.750	
		133.000	297.43	11673.591	80.750	
		133.100	298.88	10962.299	80.750	
		133.200	300.38	9441.879	80.750	
		133.300	301.92	8803.816	80.750	
		133.400	303.50	8839.652	80.750	
		133.500	305.12	8991.538	80.750	
		133.600	306.77	9176.789	80.750	
		133.700	308.44	9297.783	80.750	
		133.800	310.16	9441.410	80.750	
		133.900	311.87	9413.506	80.750	
		134.000	313.58	9328.747	80.750	
		134.100	315.30	9212.979	80.750	
		134.200	317.00	9051.163	80.750	
		134.300	318.69	9028.047	80.750	
		134.400	320.36	8989.449	80.750	
		134.500	322.03	8889.702	80.750	
		134.600	323.65	8798.733	80.750	
		134.700	325.26	8700.275	80.727	
		134.800	326.85	8597.103	80.697	
		134.900	328.43	8529.807	80.675	
		135.000	329.98	8467.824	80.654	
		135.100	331.53	8395.938	80.650	
		135.200	333.07	8361.461	80.650	
		135.300	334.60	8382.253	80.650	
		135.400	336.11	8422.102	80.650	
		135.500	337.61	8333.546	80.650	
		135.600	339.08	8173.556	80.650	
		135.700	340.55	8183.476	80.650	
		135.800	342.02	8075.278	80.650	
		135.900	343.48	8068.659	80.650	
		136.000	344.92	7941.519	80.650	
		136.100	346.38	7997.176	80.650	
		136.200	347.80	8138.216	80.650	
		136.300	349.21	8194.043	80.650	
		136.400	350.62	8211.882	80.650	
		136.500	352.01	8172.926	80.615	
		136.600	353.40	8165.683	80.571	
		136.700	354.78	8159.591	80.557	
		136.800	356.18	8119.872	80.551	
		136.900	357.59	8096.489	80.550	
		137.000	359.01	8039.023	80.550	
		137.100	360.45	7967.932	80.550	
		137.200	361.91	8082.133	80.550	
		137.300	363.37	8306.669	80.526	
		137.400	364.85	8392.074	80.496	
		137.500	366.33	8496.133	80.474	
		137.600	367.84	8595.713	80.453	
		137.700	369.34	8526.478	80.450	
		137.800	370.85	8545.228	80.450	
		137.900	372.37	8530.045	80.434	
		138.000	373.90	8427.543	80.415	
		138.100	375.42	8521.296	80.386	
		138.200	376.95	8651.840	80.356	
		138.300	378.46	8669.265	80.340	
		138.400	379.97	8640.710	80.327	
		138.500	381.46	8596.551	80.286	
		138.600	382.94	8537.403	80.239	
		138.700	384.41	8494.542	80.198	
		138.800	385.87	8421.494	80.157	
		138.900	387.33	8346.191	80.147	
		139.000	388.79	8162.436	80.144	
		139.100	390.27	7999.454	80.104	
		139.200	391.74	8202.944	80.058	
		139.300	393.20	8451.274	80.050	
		139.400	394.65	8412.610	80.050	
		139.500	396.11	8369.487	80.015	
		139.600	397.57	8312.992	79.973	
		139.700	399.04	8310.927	79.928	
		139.800	400.52	8224.349	79.883	
		139.900	402.00	8055.708	79.864	
		140.000	403.47	7869.796	79.851	
		140.100	404.90	7529.347	79.823	
		140.200	406.28	7017.092	79.792	
		140.300	407.61	6456.732	79.772	
		140.400	408.85	5842.018	79.753	
		140.500	410.02	5249.301	79.728	
		140.600	411.13	4816.208	79.701	
		140.700	412.16	4722.734	79.677	
		140.800	413.14	5054.928	79.653	
		140.900	414.09	5262.013	79.632	
		141.000	415.03	5100.972	79.611	
		141.100	415.95	5112.899	79.583	
		141.200	416.86	5044.107	79.554	
		141.300	417.77	4872.557	79.537	
		141.400	418.66	4819.907	79.522	
		141.500	419.53	5371.447	79.490	
		141.600	420.38	6147.389	79.455	
		141.700	421.21	6544.900	79.441	
		141.800	422.03	6195.744	79.431	
		141.900	422.84	5605.696	79.395	
		142.000	423.63	5597.568	79.355	
		142.100	424.42	6235.979	79.347	
		142.200	425.23	6509.679	79.343	
		142.300	426.03	5949.764	79.303	
		142.400	426.83	5788.035	79.258	
		142.500	427.65	6210.901	79.251	
		142.600	428.47	6818.520	79.250	
		142.700	429.30	6259.438	79.250	
		142.800	430.15	6413.009	79.250	
		142.900	431.03	6664.522	79.218	
		143.000	431.93	6885.319	79.181	
		143.100	432.85	7156.163	79.165	
		143.200	433.82	7366.928	79.151	
		143.300	434.80	7683.497	79.123	
		143.400	435.81	7633.156	79.093	
		143.500	436.83	7564.119	79.048	
		143.600	437.84	7199.326	79.001	
		143.700	438.85	7162.686	78.975	
		143.800	439.82	7128.025	78.952	
		143.900	440.77	6926.360	78.930	
		144.000	441.69	6749.546	78.908	
		144.100	442.58	6557.226	78.864	
		144.200	443.44	6387.743	78.818	
		144.300	444.27	6182.385	78.770	
		144.400	445.08	6031.307	78.723	
		144.500	445.88	5885.708	78.687	
		144.600	446.66	5716.361	78.653	
		144.700	447.41	5635.319	78.641	
		144.800	448.16	5702.886	78.632	
		144.900	448.92	6008.464	78.590	
		145.000	449.67	5979.021	78.544	
		145.100	450.44	5510.006	78.499	
		145.200	451.23	5641.128	78.454	
		145.300	452.02	6053.827	78.450	
		145.400	452.82	6487.511	78.449	
		145.500	453.63	5963.898	78.410	
		145.600	454.43	5535.112	78.367	
		145.700	455.22	5763.005	78.320	
		145.800	455.99	5743.822	78.273	
		145.900	456.75	5493.704	78.227	
		146.000	457.50	5408.514	78.180	
		146.100	458.23	5429.910	78.164	
		146.200	458.95	5553.233	78.151	
		146.300	459.66	5478.935	78.123	
		146.400	460.37	5277.996	78.094	
		146.500	461.08	5193.744	78.073	
		146.600	461.79	5257.477	78.052	
		146.700	462.51	5311.096	78.029	
		146.800	463.23	5255.316	78.007	
		146.900	463.93	5154.914	77.961	
		147.000	464.64	5104.322	77.914	
		147.100	465.34	5070.878	77.883	
		147.200	466.03	5027.435	77.852	
		147.300	466.72	5083.096	77.838	
		147.400	467.41	5237.217	77.825	
		147.500	468.09	5391.106	77.789	
		147.600	468.77	4953.558	77.752	
		147.700	469.45	4851.919	77.744	
		147.800	470.12	4818.565	77.738	
		147.900	470.78	4865.016	77.696	
		148.000	471.44	4749.515	77.652	
		148.100	472.08	4696.695	77.606	
		148.200	472.72	4610.780	77.560	
		148.300	473.35	4677.549	77.554	
		148.400	473.99	4915.108	77.550	
		148.500	474.62	5001.932	77.509	
		148.600	475.28	5161.221	77.467	
		148.700	475.95	5441.956	77.457	
		148.800	476.66	5738.250	77.450	
		148.900	477.40	5929.077	77.417	
		149.000	478.20	6303.099	77.383	
		149.100	479.03	6597.230	77.366	
		149.200	479.91	6800.929	77.350	
		149.300	480.83	7115.924	77.324	
		149.400	481.79	7422.709	77.296	
		149.500	482.80	7765.265	77.250	
		149.600	483.84	8088.082	77.203	
		149.700	484.92	8347.914	77.156	
		149.800	486.04	8560.828	77.110	
		149.900	487.18	8716.562	77.063	
		150.000	488.35	8932.979	77.017	
		150.100	489.54	8412.542	76.984	
		150.200	490.75	6860.721	76.951	
		150.300	491.97	6730.889	76.943	
		150.400	493.19	6711.457	76.937	
		150.500	494.44	6791.176	76.894	
		150.600	495.69	6804.819	76.851	
		150.700	496.95	6891.625	76.850	
		150.800	498.21	7019.336	76.850	
		150.900	499.50	7048.864	76.805	
		151.000	500.80	7118.495	76.759	
		151.100	502.11	7246.060	76.711	
		151.200	503.45	7388.689	76.664	
		151.300	504.81	7472.822	76.617	
		151.400	506.18	7587.256	76.571	
		151.500	507.58	7707.762	76.560	
		151.600	508.99	7814.496	76.550	
		151.700	510.43	7972.152	76.518	
		151.800	511.89	8142.877	76.485	
		151.900	513.37	8194.797	76.467	
		152.000	514.87	8256.365	76.450	
		152.100	516.40	8336.499	76.426	
		152.200	517.93	8349.179	76.401	
		152.300	519.45	8348.533	76.376	
		152.400	520.97	8235.492	76.350	
		152.500	522.48	7877.455	76.333	
		152.600	523.97	7816.421	76.317	
		152.700	525.43	7851.451	76.283	
		152.800	526.88	7690.898	76.250	
		152.900	528.28	7517.568	76.240	
		153.000	529.65	7375.475	76.230	
		153.100	530.99	7229.660	76.190	
		153.200	532.30	7094.212	76.150	
		153.300	533.58	6931.679	76.147	
		153.400	534.83	6742.414	76.143	
		153.500	536.06	6624.210	76.097	
		153.600	537.28	6547.952	76.051	
		153.700	538.46	6501.953	76.050	
		153.800	539.62	6507.614	76.050	
		153.900	540.76	6487.993	76.050	
		154.000	541.87	6599.393	76.049	
		154.100	542.97	6578.078	76.010	
		154.200	544.09	6567.633	75.972	
		154.300	545.20	6150.419	75.961	
		154.400	546.33	5731.957	75.949	
		154.500	547.43	5875.142	75.914	
		154.600	548.52	5852.338	75.880	
		154.700	549.57	5575.568	75.865	
		154.800	550.59	5425.427	75.849	
		154.900	551.57	5289.440	75.849	
		155.000	552.51	5079.595	75.849	
		155.100	553.42	4899.964	75.823	
		155.200	554.30	4730.083	75.796	
		155.300	555.15	4574.396	75.749	
		155.400	555.98	4446.362	75.703	
		155.500	556.80	4320.606	75.676	
		155.600	557.60	4807.940	75.649	
		155.700	558.39	4561.785	75.634	
		155.800	559.17	4465.007	75.617	
		155.900	559.96	4524.427	75.570	
		156.000	560.75	4340.058	75.524	
		156.100	561.53	4256.695	75.486	
		156.200	562.31	4151.572	75.450	
		156.300	563.09	4173.837	75.448	
		156.400	563.88	4299.150	75.444	
		156.500	564.67	4394.042	75.398	
		156.600	565.48	4443.873	75.352	
		156.700	566.27	4449.010	75.304	
		156.800	567.06	4481.555	75.256	
		156.900	567.85	4574.524	75.208	
		157.000	568.65	4582.945	75.163	
		157.100	569.46	4504.030	75.156	
		157.200	570.28	4480.141	75.148	
		157.300	571.12	4583.903	75.109	
		157.400	571.97	4594.648	75.068	
		157.500	572.83	4712.932	74.985	
		157.600	573.70	4748.944	74.903	
		157.700	574.58	4817.136	74.842	
		157.800	575.47	4917.191	74.783	
		157.900	576.39	5085.322	74.766	
		158.000	577.32	5223.029	74.748	
		158.100	578.29	5334.153	74.722	
		158.200	579.29	5593.722	74.694	
		158.300	580.32	5813.418	74.647	
		158.400	581.39	5991.259	74.601	
		158.500	582.50	6269.453	74.554	
		158.600	583.65	6462.243	74.506	
		158.700	584.85	6628.100	74.460	
		158.800	586.07	6820.477	74.413	
		158.900	587.35	6984.527	74.366	
		159.000	588.64	7138.687	74.320	
		159.100	589.95	7274.878	74.283	
		159.200	591.29	7365.938	74.249	
		159.300	592.65	7572.810	74.240	
		159.400	594.03	7694.035	74.228	
		159.500	595.41	7509.805	74.180	
		159.600	596.79	7545.871	74.133	
		159.700	598.18	7268.792	74.089	
		159.800	599.55	6919.352	74.050	
		159.900	600.89	7210.682	74.048	
		160.000	602.20	7078.621	74.042	
		160.100	603.50	7003.402	73.995	
		160.200	604.77	6894.595	73.949	
		160.300	606.02	6812.607	73.902	
		160.400	607.26	6722.732	73.860	
		160.500	608.50	6712.363	73.855	
		160.600	609.72	6846.662	73.846	
		160.700	610.93	6821.687	73.809	
		160.800	612.15	6779.146	73.775	
		160.900	613.38	6765.850	73.762	
		161.000	614.61	6750.224	73.750	
		161.100	615.84	6743.121	73.750	
		161.200	617.08	6744.641	73.747	
		161.300	618.32	6739.594	73.721	
		161.400	619.55	6681.689	73.696	
		161.500	620.77	6578.852	73.671	
		161.600	621.98	6404.407	73.650	
		161.700	623.17	6253.231	73.650	
		161.800	624.34	6326.593	73.648	
		161.900	625.50	6204.413	73.631	
		162.000	626.64	5958.193	73.612	
		162.100	627.74	5883.284	73.579	
		162.200	628.82	5412.797	73.550	
		162.300	629.87	4989.684	73.550	
		162.400	630.89	5026.145	73.548	
		162.500	631.89	5820.224	73.539	
		162.600	632.85	6661.789	73.525	
		162.700	633.79	7131.746	73.484	
		162.800	634.70	6905.022	73.450	
		162.900	635.58	6502.366	73.450	
		163.000	636.44	6073.134	73.449	
		163.100	637.27	6128.740	73.446	
		163.200	638.08	6069.786	73.437	
		163.300	638.87	5839.000	73.390	
		163.400	639.63	5678.713	73.350	
		163.500	640.38	5546.799	73.350	
		163.600	641.10	5445.298	73.350	
		163.700	641.81	5421.282	73.350	
		163.800	642.52	5465.929	73.350	
		163.900	643.21	5484.572	73.350	
		164.000	643.90	5332.600	73.350	
		164.100	644.59	5105.549	73.350	
		164.200	645.27	5043.989	73.350	
		164.300	645.96	5046.041	73.350	
		164.400	646.64	5065.521	73.350	
		164.500	647.30	5018.817	73.350	
		164.600	647.97	4976.781	73.350	
		164.700	648.62	4925.796	73.350	
		164.800	649.26	4823.208	73.354	
		164.900	649.90	4771.707	73.380	
		165.000	650.53	4718.149	73.407	
		165.100	651.15	4641.808	73.430	
		165.200	651.75	4576.334	73.450	
		165.300	652.35	4484.246	73.450	
		165.400	652.94	4363.457	73.450	
		165.500	653.51	4320.662	73.450	
		165.600	654.08	4276.797	73.450	
		165.700	654.63	4214.108	73.450	
		165.800	655.18	4137.475	73.450	
		165.900	655.72	4096.995	73.450	
		166.000	656.26	4079.810	73.452	
		166.100	656.78	4048.662	73.463	
		166.200	657.30	4002.259	73.480	
		166.300	657.81	3926.125	73.518	
		166.400	658.32	3923.899	73.550	
		166.500	658.81	3984.430	73.550	
		166.600	659.30	4048.028	73.550	
		166.700	659.78	4064.709	73.554	
		166.800	660.24	3982.014	73.566	
		166.900	660.69	3998.302	73.612	
		167.000	661.13	4019.563	73.650	
		167.100	661.55	4026.045	73.650	
		167.200	661.96	4008.403	73.658	
		167.300	662.36	3993.980	73.702	
		167.400	662.74	4001.803	73.739	
		167.500	663.11	4005.800	73.745	
		167.600	663.47	3985.642	73.750	
		167.700	663.82	3983.966	73.750	
		167.800	664.15	4001.760	73.757	
		167.900	664.47	3982.719	73.794	
		168.000	664.78	3969.266	73.834	
		168.100	665.07	3986.966	73.881	
		168.200	665.35	3997.071	73.922	
		168.300	665.61	3986.093	73.938	
		168.400	665.86	3985.569	73.956	
		168.500	666.09	3982.943	73.985	
		168.600	666.31	3961.061	74.012	
		168.700	666.51	3978.153	74.033	
		168.800	666.70	3974.278	74.055	
		168.900	666.88	3964.684	74.079	
		169.000	667.04	3969.180	74.109	
		169.100	667.19	3980.501	74.155	
		169.200	667.33	4016.967	74.198	
		169.300	667.46	4018.252	74.227	
		169.400	667.57	3982.509	74.253	
		169.500	667.68	3932.590	74.267	
		169.600	667.77	3905.963	74.286	
		169.700	667.86	3914.449	74.322	
		169.800	667.93	3922.399	74.352	
		169.900	668.00	3954.534	74.362	
		170.000	668.05	3991.889	74.380	
		170.100	668.10	3975.589	74.428	
		170.200	668.14	3936.213	74.475	
		170.300	668.17	3935.081	74.517	
		170.400	668.19	3960.670	74.550	
		170.500	668.21	3983.639	74.553	
		170.600	668.21	3970.710	74.567	
		170.700	668.21	3926.877	74.614	
		170.800	668.21	3927.393	74.662	
		170.900	668.21	3952.804	74.710	
		171.000	668.22	3956.500	74.747	
		171.100	668.22	3906.223	74.749	
		171.200	668.22	3870.226	74.770	
		171.300	668.22	3845.458	74.854	
		171.400	668.22	3802.261	74.920	
		171.500	668.22	3740.260	74.937	
		171.600	668.22	3685.190	74.959	
		171.700	668.22	3638.985	74.995	
		171.800	668.22	3616.043	75.034	
		171.900	668.22	3670.501	75.083	
		172.000	668.22	3699.320	75.131	
		172.100	668.22	3706.464	75.179	
		172.200	668.22	3765.825	75.227	
		172.300	668.22	3885.048	75.274	
		172.400	668.22	4015.570	75.315	
		172.500	668.22	4040.757	75.335	
		172.600	668.22	3988.040	75.357	
		172.700	668.22	4000.213	75.382	
		172.800	668.22	4017.637	75.413	
		172.900	668.22	4033.253	75.461	
		173.000	668.22	4034.910	75.509	
		173.100	668.22	4021.168	75.557	
		173.200	668.22	4024.538	75.604	
		173.300	668.22	4030.874	75.652	
		173.400	668.22	4010.047	75.700	
		173.500	668.22	3999.018	75.747	
		173.600	668.22	4002.001	75.795	
		173.700	668.22	3986.244	75.843	
		173.800	668.22	3969.937	75.891	
		173.900	668.22	3964.908	75.938	
		174.000	668.22	3944.913	75.985	
		174.100	668.22	3924.763	76.033	
		174.200	668.22	3924.967	76.081	
		174.300	668.22	3935.392	76.129	
		174.400	668.22	3941.362	76.178	
		174.500	668.22	3932.818	76.225	
		174.600	668.22	3920.665	76.273	
		174.700	668.22	3893.964	76.321	
		174.800	668.22	3891.906	76.369	
		174.900	668.22	3860.501	76.417	
		175.000	668.22	3826.159	76.465	
		175.100	668.22	3768.112	76.513	
		175.200	668.22	3702.694	76.560	
		175.300	668.22	3653.674	76.608	
		175.400	668.22	3615.205	76.657	
		175.500	668.22	3608.263	76.705	
		175.600	668.22	3628.013	76.753	
		175.700	668.22	3679.606	76.801	
		175.800	668.22	3703.771	76.849	
		175.900	668.22	3708.698	76.897	
		176.000	668.22	3722.438	76.934	
		176.100	668.22	3721.060	76.943	
		176.200	668.22	3729.044	76.961	
		176.300	668.22	3754.966	76.997	
		176.400	668.22	3783.478	77.037	
		176.500	668.22	3858.881	77.085	
		176.600	668.22	3943.159	77.133	
		176.700	668.22	4012.033	77.180	
		176.800	668.22	4057.370	77.226	
		176.900	668.22	4045.386	77.274	
		177.000	668.23	4029.389	77.321	
		177.100	668.23	4021.721	77.368	
		177.200	668.23	4018.525	77.416	
		177.300	668.23	4010.348	77.464	
		177.400	668.23	4018.585	77.512	
		177.500	668.23	4035.269	77.559	
		177.600	668.23	4009.559	77.606	
		177.700	668.23	4000.634	77.652	
		177.800	668.23	4015.527	77.699	
		177.900	668.23	3997.531	77.746	
		178.000	668.23	3982.990	77.794	
		178.100	668.23	4006.441	77.842	
		178.200	668.23	4028.946	77.890	
		178.300	668.23	4005.435	77.938	
		178.400	668.23	3980.273	77.984	
		178.500	668.23	3991.285	78.029	
		178.600	668.23	3979.702	78.074	
		178.700	668.23	3960.831	78.122	
		178.800	668.23	3970.115	78.169	
		178.900	668.23	3964.313	78.216	
		179.000	668.23	3955.275	78.247	
		179.100	668.23	3937.900	78.249	
		179.200	668.23	3919.278	78.265	
		179.300	668.23	3900.893	78.308	
		179.400	668.23	3867.872	78.353	
		179.500	668.23	3810.647	78.401	
		179.600	668.23	3736.632	78.448	
		179.700	668.23	3699.677	78.496	
		179.800	668.23	3680.816	78.544	
		179.900	668.23	3661.139	78.592	
		180.000	668.23	3684.779	78.640	
		180.100	668.23	3695.619	78.687	
		180.200	668.23	3691.209	78.735	
		180.300	668.23	3678.521	78.782	
		180.400	668.23	3672.701	78.830	
		180.500	668.23	3711.733	78.877	
		180.600	668.23	3747.049	78.924	
		180.700	668.23	3771.475	78.971	
		180.800	668.23	3789.195	79.018	
		180.900	668.23	3791.980	79.066	
		181.000	668.23	3815.731	79.107	
		181.100	668.23	3876.232	79.133	
		181.200	668.23	3946.378	79.157	
		181.300	668.23	4013.907	79.177	
		181.400	668.23	4046.959	79.208	
		181.500	668.23	4036.554	79.254	
		181.600	668.23	4019.511	79.301	
		181.700	668.23	4003.733	79.348	
		181.800	668.23	3999.660	79.396	
		181.900	668.23	4024.841	79.444	
		182.000	668.23	4207.182	79.488	
		182.100	668.23	4602.568	79.526	
		182.200	668.23	5152.389	79.552	
		182.300	668.23	6002.017	79.558	
		182.400	668.23	6654.285	79.580	
		182.500	668.23	6833.543	79.627	
		182.600	668.23	6901.214	79.674	
		182.700	668.23	7048.254	79.719	
		182.800	668.23	7189.319	79.766	
		182.900	668.23	7154.418	79.813	
		183.000	668.23	7002.221	79.859	
		183.100	668.23	7039.442	79.905	
		183.200	668.23	7454.129	79.951	
		183.300	668.23	8062.270	79.998	
		183.400	668.23	8492.516	80.045	
		183.500	668.23	8628.419	80.091	
		183.600	668.23	8580.263	80.137	
		183.700	668.23	8461.322	80.184	
		183.800	668.23	8351.583	80.219	
		183.900	668.23	8310.012	80.238	
		184.000	668.23	8283.765	80.259	
		184.100	668.23	8266.727	80.284	
		184.200	668.23	8289.043	80.318	
		184.300	668.24	8552.451	80.364	
		184.400	668.27	9058.182	80.411	
		184.500	668.29	8934.605	80.457	
		184.600	668.32	8094.457	80.503	
		184.700	668.42	7514.763	80.549	
		184.800	668.59	7318.294	80.596	
		184.900	668.86	7259.841	80.641	
		185.000	669.23	7059.736	80.688	
		185.100	669.70	6854.886	80.735	
		185.200	670.30	6802.747	80.781	
		185.300	670.97	6815.955	80.825	
		185.400	671.72	6703.148	80.870	
		185.500	672.54	6844.261	80.918	
		185.600	673.45	7231.046	80.966	
		185.700	674.42	7663.923	81.014	
		185.800	675.47	8291.128	81.062	
		185.900	676.59	8906.529	81.109	
		186.000	677.78	9469.477	81.156	
		186.100	679.03	10117.751	81.203	
		186.200	680.34	10622.261	81.265	
		186.300	681.69	10723.654	81.347	
		186.400	683.09	10283.447	81.421	
		186.500	684.47	9964.664	81.482	
		186.600	685.84	9837.696	81.550	
		186.700	687.18	9519.933	81.627	
		186.800	688.47	9117.346	81.699	
		186.900	689.69	8726.202	81.766	
		187.000	690.86	8416.047	81.824	
		187.100	691.99	8129.783	81.871	
		187.200	693.06	7799.869	81.919	
		187.300	694.09	7448.679	81.966	
		187.400	695.06	7171.405	82.014	
		187.500	696.00	6920.723	82.061	
		187.600	696.89	6660.732	82.109	
		187.700	697.74	6394.792	82.157	
		187.800	698.55	6150.553	82.204	
		187.900	699.34	5931.344	82.251	
		188.000	700.10	5742.442	82.297	
		188.100	700.84	5599.737	82.344	
		188.200	701.58	5578.547	82.388	
		188.300	702.31	5791.738	82.428	
		188.400	703.05	6040.058	82.450	
		188.500	703.80	5772.506	82.451	
		188.600	704.56	5439.083	82.474	
		188.700	705.33	5679.315	82.522	
		188.800	706.09	6171.412	82.547	
		188.900	706.87	6309.744	82.549	
		189.000	707.65	5934.652	82.569	
		189.100	708.44	5766.852	82.609	
		189.200	709.24	6060.459	82.634	
		189.300	710.05	6255.423	82.645	
		189.400	710.87	6189.116	82.650	
		189.500	711.68	6413.362	82.650	
		189.600	712.50	6753.838	82.650	
		189.700	713.32	6991.866	82.650	
		189.800	714.17	7248.600	82.639	
		189.900	715.05	7621.665	82.618	
		190.000	715.98	8133.099	82.593	
		190.100	716.96	8674.884	82.564	
		190.200	718.01	9262.000	82.544	
		190.300	719.10	9919.512	82.531	
		190.400	720.26	10517.815	82.501	
		190.500	721.48	11019.626	82.455	
		190.600	722.76	11514.988	82.411	
		190.700	724.10	11963.180	82.370	
		190.800	725.52	12216.342	82.350	
		190.900	727.01	12261.203	82.350	
		191.000	728.54	12300.760	82.327	
		191.100	730.11	12091.433	82.281	
		191.200	731.69	11370.685	82.234	
		191.300	733.26	10743.920	82.185	
		191.400	734.79	10476.418	82.138	
		191.500	736.27	10262.342	82.091	
		191.600	737.69	9960.297	82.044	
		191.700	739.04	9610.775	81.996	
		191.800	740.32	9260.182	81.949	
		191.900	741.54	8903.633	81.902	
		192.000	742.71	8549.413	81.872	
		192.100	743.84	8309.464	81.857	
		192.200	744.95	8266.490	81.835	
		192.300	746.03	8671.867	81.806	
		192.400	747.11	9073.470	81.768	
		192.500	748.18	8771.387	81.720	
		192.600	749.24	8202.263	81.673	
		192.700	750.30	7826.559	81.626	
		192.800	751.36	7723.830	81.590	
		192.900	752.40	7794.623	81.562	
		193.000	753.43	7807.027	81.550	
		193.100	754.43	7729.091	81.550	
		193.200	755.41	7617.614	81.544	
		193.300	756.35	7455.165	81.535	
		193.400	757.28	7279.164	81.508	
		193.500	758.19	7205.442	81.468	
		193.600	759.11	7256.396	81.449	
		193.700	760.04	7231.630	81.449	
		193.800	760.97	7204.316	81.449	
		193.900	761.92	7379.543	81.449	
		194.000	762.88	7538.373	81.426	
		194.100	763.84	7918.502	81.383	
		194.200	764.84	8458.738	81.339	
		194.300	765.86	8849.420	81.293	
		194.400	766.92	9264.633	81.266	
		194.500	768.04	9744.576	81.254	
		194.600	769.22	10072.193	81.234	
		194.700	770.47	10295.145	81.206	
		194.800	771.76	10697.677	81.181	
		194.900	773.11	11309.425	81.159	
		195.000	774.49	11896.803	81.139	
		195.100	775.92	12062.601	81.119	
		195.200	777.38	11242.072	81.085	
		195.300	778.85	11976.672	81.040	
		195.400	780.32	13364.926	81.000	
		195.500	781.81	13600.373	80.965	
		195.600	783.26	13546.812	80.946	
		195.700	784.69	13037.263	80.939	
		195.800	786.11	12221.843	80.909	
		195.900	787.52	11968.322	80.862	
		196.000	788.91	12683.992	80.816	
		196.100	790.29	13420.271	80.770	
		196.200	791.67	12927.896	80.750	
		196.300	793.05	11695.005	80.750	
		196.400	794.40	10558.326	80.724	
		196.500	795.75	9680.392	80.679	
		196.600	797.09	8959.332	80.633	
		196.700	798.41	8290.010	80.586	
		196.800	799.73	7691.917	80.539	
		196.900	801.04	7065.141	80.492	
		197.000	802.35	6456.214	80.466	
		197.100	803.63	5852.234	80.454	
		197.200	804.89	5228.567	80.429	
		197.300	806.13	5144.007	80.395	
		197.400	807.33	5655.985	80.352	
		197.500	808.51	6586.274	80.305	
		197.600	809.66	7659.592	80.275	
		197.700	810.77	8223.162	80.257	
		197.800	811.87	8100.831	80.233	
		197.900	812.93	7805.160	80.207	
		198.000	813.95	7635.469	80.167	
		198.100	814.95	7442.395	80.120	
		198.200	815.92	7201.311	80.085	
		198.300	816.87	7016.146	80.060	
		198.400	817.79	6926.874	80.038	
		198.500	818.69	7107.611	80.020	
		198.600	819.59	7650.649	79.993	
		198.700	820.47	7416.294	79.962	
		198.800	821.35	7015.944	79.949	
		198.900	822.23	6903.552	79.949	
		199.000	823.12	6839.187	79.945	
		199.100	823.99	6972.752	79.937	
		199.200	824.87	7338.238	79.909	
		199.300	825.77	7391.140	79.866	
		199.400	826.65	7502.991	79.849	
		199.500	827.55	7747.853	79.848	
		199.600	828.48	7947.175	79.818	
		199.700	829.43	8079.365	79.771	
		199.800	830.40	8300.596	79.752	
		199.900	831.39	8527.122	79.750	
		200.000	832.40	8621.054	79.724	
		200.100	833.43	8725.169	79.683	
		200.200	834.48	8838.146	79.638	
		200.300	835.56	8854.002	79.591	
		200.400	836.66	8960.454	79.566	
		200.500	837.80	9257.657	79.554	
		200.600	838.99	9819.321	79.530	
		200.700	840.23	10271.649	79.498	
		200.800	841.53	10803.867	79.457	
		200.900	842.87	11336.384	79.410	
		201.000	844.26	10154.922	79.365	
		201.100	845.70	8815.554	79.320	
		201.200	847.20	8640.456	79.286	
		201.300	848.76	8955.176	79.259	
		201.400	850.36	9174.605	79.240	
		201.500	852.03	9572.925	79.226	
		201.600	853.77	10009.257	79.191	
		201.700	855.56	10299.995	79.146	
		201.800	857.40	10542.755	79.101	
		201.900	859.29	10533.461	79.055	
		202.000	861.23	10074.622	79.010	
		202.100	863.20	9589.478	78.965	
		202.200	865.22	9769.817	78.919	
		202.300	867.29	10199.430	78.873	
		202.400	869.41	10602.885	78.855	
		202.500	871.56	10828.323	78.851	
		202.600	873.75	10925.122	78.824	
		202.700	875.99	10289.819	78.785	
		202.800	878.26	9727.401	78.765	
		202.900	880.56	9845.316	78.753	
		203.000	882.89	10204.707	78.728	
		203.100	885.29	10484.494	78.696	
		203.200	887.68	10551.650	78.674	
		203.300	890.07	10201.688	78.655	
		203.400	892.47	9490.009	78.632	
		203.500	894.83	8879.221	78.605	
		203.600	897.13	8662.565	78.580	
		203.700	899.36	8388.477	78.557	
		203.800	901.50	7827.642	78.536	
		203.900	903.56	8122.278	78.515	
		204.000	905.49	8887.944	78.489	
		204.100	907.32	9518.338	78.459	
		204.200	909.04	10007.229	78.449	
		204.300	910.65	10102.347	78.449	
		204.400	912.14	9849.907	78.449	
		204.500	913.52	9211.002	78.449	
		204.600	914.79	7868.352	78.449	
		204.700	915.97	6335.870	78.449	
		204.800	917.06	5543.549	78.446	
		204.900	918.08	5324.609	78.441	
		205.000	919.04	5132.643	78.409	
		205.100	919.96	5036.500	78.364	
		205.200	920.86	5226.472	78.350	
		205.300	921.73	5509.235	78.350	
		205.400	922.62	5229.014	78.350	
		205.500	923.50	5047.008	78.350	
		205.600	924.37	4936.180	78.350	
		205.700	925.25	4947.700	78.350	
		205.800	926.12	5165.401	78.326	
		205.900	927.00	5176.792	78.292	
		206.000	927.88	5192.157	78.271	
		206.100	928.77	5256.931	78.255	
		206.200	929.68	5415.976	78.250	
		206.300	930.60	5612.526	78.250	
		206.400	931.56	5776.909	78.235	
		206.500	932.56	5973.828	78.214	
		206.600	933.60	6193.195	78.187	
		206.700	934.70	6453.182	78.158	
		206.800	935.84	6676.482	78.140	
		206.900	937.05	6925.945	78.125	
		207.000	938.29	7222.398	78.096	
		207.100	939.58	7355.538	78.060	
		207.200	940.91	7625.772	78.045	
		207.300	942.29	7921.082	78.039	
		207.400	943.72	8217.990	78.003	
		207.500	945.19	8516.377	77.957	
		207.600	946.70	8773.655	77.911	
		207.700	948.28	8991.827	77.865	
		207.800	949.87	9092.126	77.818	
		207.900	951.51	9234.013	77.772	
		208.000	953.19	9542.369	77.727	
		208.100	954.90	9883.067	77.682	
		208.200	956.66	10011.518	77.662	
		208.300	958.46	10260.687	77.652	
		208.400	960.31	10556.733	77.627	
		208.500	962.21	10710.098	77.596	
		208.600	964.13	10857.671	77.553	
		208.700	966.08	10828.095	77.505	
		208.800	968.02	10426.514	77.457	
		208.900	969.96	10151.183	77.410	
		209.000	971.86	10003.248	77.380	
		209.100	973.71	9726.894	77.356	
		209.200	975.51	9268.877	77.333	
		209.300	977.20	8613.783	77.312	
		209.400	978.80	7777.146	77.271	
		209.500	980.31	6993.592	77.224	
		209.600	981.72	6529.444	77.189	
		209.700	983.04	6506.181	77.157	
		209.800	984.29	7013.955	77.140	
		209.900	985.46	7779.188	77.129	
		210.000	986.58	8250.871	77.097	
		210.100	987.65	8025.140	77.059	
		210.200	988.70	7489.159	77.049	
		210.300	989.73	7814.298	77.049	
		210.400	990.77	8599.898	77.049	
		210.500	991.82	8784.788	77.049	
		210.600	992.89	8703.803	77.049	
		210.700	993.99	8750.085	77.049	
		210.800	995.10	8891.843	77.049	
		210.900	996.24	8868.022	77.049	
		211.000	997.38	8680.513	77.018	
		211.100	998.52	8333.972	76.978	
		211.200	999.65	7986.783	76.962	
		211.300	1000.77	7924.039	76.952	
		211.400	1001.85	7820.661	76.950	
		211.500	1002.92	7551.457	76.950	
		211.600	1003.95	7368.604	76.950	
		211.700	1004.93	7100.201	76.950	
		211.800	1005.89	6932.143	76.950	
		211.900	1006.82	7249.142	76.950	
		212.000	1007.72	8034.243	76.931	
		212.100	1008.62	7661.769	76.907	
		212.200	1009.49	6979.178	76.881	
		212.300	1010.35	6463.295	76.855	
		212.400	1011.17	5964.178	76.836	
		212.500	1011.99	5779.776	76.819	
		212.600	1012.77	6344.159	76.789	
		212.700	1013.56	6912.239	76.757	
		212.800	1014.34	7225.469	76.743	
		212.900	1015.14	7573.975	76.734	
		213.000	1015.96	8046.803	76.699	
		213.100	1016.80	8430.155	76.658	
		213.200	1017.67	8599.675	76.647	
		213.300	1018.57	8629.247	76.644	
		213.400	1019.52	8430.026	76.606	
		213.500	1020.50	8103.452	76.559	
		213.600	1021.54	8193.026	76.512	
		213.700	1022.62	8468.753	76.466	
		213.800	1023.76	8561.016	76.419	
		213.900	1024.91	8759.427	76.373	
		214.000	1026.10	8914.154	76.358	
		214.100	1027.30	8833.426	76.351	
		214.200	1028.51	9134.828	76.323	
		214.300	1029.74	9502.618	76.290	
		214.400	1030.99	9737.869	76.246	
		214.500	1032.25	9650.475	76.200	
		214.600	1033.53	9721.237	76.174	
		214.700	1034.81	9741.701	76.153	
		214.800	1036.08	9839.687	76.131	
		214.900	1037.36	9891.935	76.108	
		215.000	1038.65	9914.350	76.082	
		215.100	1039.93	9828.975	76.054	
		215.200	1041.21	9748.857	76.038	
		215.300	1042.51	9741.258	76.023	
		215.400	1043.80	9837.679	75.991	
		215.500	1045.11	10161.672	75.956	
		215.600	1046.42	10422.923	75.950	
		215.700	1047.75	10522.879	75.950	
		215.800	1049.08	10521.987	75.950	
		215.900	1050.43	10454.749	75.950	
		216.000	1051.78	10368.391	75.913	
		216.100	1053.16	10357.924	75.868	
		216.200	1054.51	10327.012	75.856	
		216.300	1055.86	10018.403	75.850	
		216.400	1057.19	9671.216	75.849	
		216.500	1058.50	9360.441	75.849	
		216.600	1059.78	9202.896	75.849	
		216.700	1061.03	8787.720	75.849	
		216.800	1062.25	8433.830	75.849	
		216.900	1063.41	8202.880	75.849	
		217.000	1064.55	8052.799	75.849	
		217.100	1065.64	7745.910	75.849	
		217.200	1066.69	7336.295	75.849	
		217.300	1067.71	7094.631	75.849	
		217.400	1068.69	7193.048	75.849	
		217.500	1069.65	7203.912	75.849	
		217.600	1070.60	6968.170	75.831	
		217.700	1071.51	6866.192	75.810	
		217.800	1072.41	6923.057	75.783	
		217.900	1073.28	6833.097	75.754	
		218.000	1074.13	6622.237	75.749	
		218.100	1074.95	6409.831	75.749	
		218.200	1075.75	6283.559	75.739	
		218.300	1076.54	5893.347	75.726	
		218.400	1077.33	5379.736	75.692	
		218.500	1078.12	5836.361	75.654	
		218.600	1078.91	6825.244	75.649	
		218.700	1079.69	6145.926	75.649	
		218.800	1080.47	5473.274	75.649	
		218.900	1081.25	5606.545	75.649	
		219.000	1082.00	5620.061	75.649	
		219.100	1082.75	5493.583	75.649	
		219.200	1083.48	5601.346	75.614	
		219.300	1084.23	6362.336	75.573	
		219.400	1084.99	6749.927	75.528	
		219.500	1085.79	7047.472	75.482	
		219.600	1086.63	7241.585	75.465	
		219.700	1087.54	7223.722	75.452	
		219.800	1088.50	7342.961	75.425	
		219.900	1089.51	8165.196	75.396	
		220.000	1090.57	8442.599	75.374	
		220.100	1091.68	8727.004	75.352	
		220.200	1092.81	9311.055	75.332	
		220.300	1093.97	9452.871	75.311	
		220.400	1095.13	9176.026	75.282	
		220.500	1096.29	8933.541	75.253	
		220.600	1097.44	8779.599	75.238	
		220.700	1098.60	8825.437	75.225	
		220.800	1099.77	8955.886	75.191	
		220.900	1100.95	9053.367	75.154	
		221.000	1102.15	9187.041	75.145	
		221.100	1103.36	9367.004	75.139	
		221.200	1104.57	9548.902	75.098	
		221.300	1105.79	9443.469	75.054	
		221.400	1107.03	9235.930	75.050	
		221.500	1108.26	9498.377	75.050	
		221.600	1109.50	9743.896	75.013	
		221.700	1110.74	9589.021	74.972	
		221.800	1111.99	9687.546	74.960	
		221.900	1113.25	9658.142	74.951	
		222.000	1114.51	9596.213	74.922	
		222.100	1115.77	9584.620	74.891	
		222.200	1117.03	9668.267	74.870	
		222.300	1118.27	9921.944	74.851	
		222.400	1119.51	10251.604	74.850	
		222.500	1120.77	10585.263	74.850	
		222.600	1122.06	10991.163	74.833	
		222.700	1123.40	11421.547	74.816	
		222.800	1124.79	11779.368	74.784	
		222.900	1126.25	11913.606	74.752	
		223.000	1127.76	11347.983	74.750	
		223.100	1129.33	9883.173	74.750	
		223.200	1130.96	9321.876	74.750	
		223.300	1132.65	9694.406	74.750	
		223.400	1134.40	9998.234	74.750	
		223.500	1136.18	10261.234	74.750	
		223.600	1138.00	10303.267	74.750	
		223.700	1139.83	9768.509	74.750	
		223.800	1141.62	9269.023	74.750	
		223.900	1143.36	8605.207	74.750	
		224.000	1145.03	8026.971	74.750	
		224.100	1146.54	8346.978	74.750	
		224.200	1147.95	9069.773	74.750	
		224.300	1149.26	9227.392	74.750	
		224.400	1150.48	8679.063	74.750	
		224.500	1151.63	7949.449	74.750	
		224.600	1152.70	7574.822	74.750	
		224.700	1153.71	7370.218	74.750	
		224.800	1154.67	7097.017	74.722	
		224.900	1155.59	6840.610	74.694	
		225.000	1156.48	6664.310	74.696	
		225.100	1157.34	6764.113	74.700	
		225.200	1158.21	7129.007	74.704	
		225.300	1159.08	7257.858	74.707	
		225.400	1159.97	7049.689	74.679	
		225.500	1160.87	7162.335	74.651	
		225.600	1161.79	7178.952	74.650	
		225.700	1162.72	7292.905	74.650	
		225.800	1163.66	7367.366	74.650	
		225.900	1164.61	7488.489	74.650	
		226.000	1165.58	8284.314	74.650	
		226.100	1166.57	8738.205	74.650	
		226.200	1167.59	9203.012	74.650	
		226.300	1168.66	10078.754	74.650	
		226.400	1169.77	10635.105	74.650	
		226.500	1170.94	10871.623	74.650	
		226.600	1172.16	10787.334	74.650	
		226.700	1173.43	10744.290	74.650	
		226.800	1174.72	10961.872	74.650	
		226.900	1176.06	11173.989	74.650	
		227.000	1177.40	11179.702	74.613	
		227.100	1178.78	10921.735	74.575	
		227.200	1180.14	10621.826	74.562	
		227.300	1181.50	10399.938	74.550	
		227.400	1182.83	10207.669	74.550	
		227.500	1184.17	10208.516	74.550	
		227.600	1185.46	10242.604	74.550	
		227.700	1186.73	10359.327	74.550	
		227.800	1187.99	10595.602	74.550	
		227.900	1189.24	11094.768	74.550	
		228.000	1190.50	9591.964	74.550	
		228.100	1191.76	8992.071	74.550	
		228.200	1193.03	8797.874	74.550	
		228.300	1194.33	9022.700	74.550	
		228.400	1195.67	9123.922	74.557	
		228.500	1197.05	9483.248	74.565	
		228.600	1198.49	9303.370	74.607	
		228.700	1199.99	9178.509	74.650	
		228.800	1201.55	9181.303	74.650	
		228.900	1203.17	9406.526	74.651	
		229.000	1204.87	9733.395	74.697	
		229.100	1206.64	10034.223	74.742	
		229.200	1208.44	10392.056	74.746	
		229.300	1210.28	10489.286	74.750	
		229.400	1212.14	9959.330	74.790	
		229.500	1214.00	9621.704	74.829	
		229.600	1215.81	9304.190	74.839	
		229.700	1217.57	8913.572	74.850	
		229.800	1219.27	8523.297	74.883	
		229.900	1220.85	7929.011	74.916	
		230.000	1222.37	7066.521	74.963	
		230.100	1223.80	6122.567	75.010	
		230.200	1225.15	5469.990	75.057	
		230.300	1226.45	4836.674	75.104	
		230.400	1227.69	4406.380	75.151	
		230.500	1228.86	4599.359	75.198	
		230.600	1229.98	5004.708	75.245	
		230.700	1231.05	5349.736	75.292	
		230.800	1232.06	5821.756	75.339	
		230.900	1233.04	6715.133	75.386	
		231.000	1234.03	8101.191	75.432	
		231.100	1235.03	8976.243	75.478	
		231.200	1236.06	8712.017	75.524	
		231.300	1237.15	8539.200	75.569	
		231.400	1238.28	9018.943	75.615	
		231.500	1239.44	9377.497	75.661	
		231.600	1240.65	9639.623	75.706	
		231.700	1241.90	10010.357	75.751	
		231.800	1243.18	10299.048	75.796	
		231.900	1244.50	10586.164	75.839	
		232.000	1245.84	10778.662	75.845	
		232.100	1247.22	10497.679	75.851	
		232.200	1248.62	9143.930	75.887	
		232.300	1250.04	8074.160	75.923	
		232.400	1251.49	8146.058	75.969	
		232.500	1252.95	8178.702	76.014	
		232.600	1254.43	8353.046	76.032	
		232.700	1255.92	8496.251	76.051	
		232.800	1257.42	8331.784	76.076	
		232.900	1258.89	8070.477	76.101	
		233.000	1260.35	7592.758	76.126	
		233.100	1261.77	7242.664	76.151	
		233.200	1263.16	6706.941	76.170	
		233.300	1264.50	5927.388	76.190	
		233.400	1265.79	5562.182	76.221	
		233.500	1267.02	5574.732	76.250	
		233.600	1268.20	5351.497	76.250	
		233.700	1269.32	5165.042	76.250	
		233.800	1270.37	5289.537	76.250	
		233.900	1271.38	5260.545	76.250	
		234.000	1272.35	5535.056	76.255	
		234.100	1273.30	6869.640	76.263	
		234.200	1274.23	8506.400	76.308	
		234.300	1275.17	9083.027	76.350	
		234.400	1276.12	8803.709	76.350	
		234.500	1277.07	8969.283	76.350	
		234.600	1278.04	9635.583	76.350	
		234.700	1279.03	10449.827	76.350	
		234.800	1280.03	10606.710	76.350	
		234.900	1281.05	10588.598	76.353	
		235.000	1282.09	10766.017	76.389	
		235.100	1283.17	10843.897	76.423	
		235.200	1284.29	10919.292	76.437	
		235.300	1285.46	10764.954	76.452	
		235.400	1286.69	10669.756	76.476	
		235.500	1287.99	10659.133	76.500	
		235.600	1289.36	10979.986	76.526	
		235.700	1290.79	11361.682	76.551	
		235.800	1292.28	11894.304	76.566	
		235.900	1293.81	12047.725	76.582	
		236.000	1295.35	11079.198	76.618	
		236.100	1296.89	10293.107	76.651	
		236.200	1298.39	9653.349	76.659	
		236.300	1299.81	8757.525	76.671	
		236.400	1301.15	7857.104	76.712	
		236.500	1302.45	7178.510	76.750	
		236.600	1303.68	6834.270	76.753	
		236.700	1304.89	7166.709	76.761	
		236.800	1306.06	8279.854	76.807	
		236.900	1307.19	9504.851	76.853	
		237.000	1308.29	8939.988	76.900	
		237.100	1309.35	8435.197	76.941	
		237.200	1310.38	9216.955	76.946	
		237.300	1311.38	9527.790	76.954	
		237.400	1312.35	9226.450	76.995	
		237.500	1313.30	8833.556	77.031	
		237.600	1314.25	8410.323	77.041	
		237.700	1315.22	8202.370	77.053	
		237.800	1316.19	8063.041	77.087	
		237.900	1317.18	8046.192	77.119	
		238.000	1318.18	8286.897	77.135	
		238.100	1319.19	8250.553	77.153	
		238.200	1320.23	7959.703	77.180	
		238.300	1321.26	8213.890	77.210	
		238.400	1322.31	8868.781	77.257	
		238.500	1323.37	9175.497	77.301	
		238.600	1324.46	9460.461	77.327	
		238.700	1325.57	9219.790	77.352	
		238.800	1326.70	9301.756	77.369	
		238.900	1327.89	9606.463	77.391	
		239.000	1329.12	10416.198	77.436	
		239.100	1330.39	10825.486	77.481	
		239.200	1331.71	11316.964	77.518	
		239.300	1333.09	11737.019	77.550	
		239.400	1334.54	11451.213	77.555	
		239.500	1336.05	10128.759	77.565	
		239.600	1337.62	9312.345	77.611	
		239.700	1339.26	9349.113	77.650	
		239.800	1340.94	9531.484	77.650	
		239.900	1342.67	9934.565	77.656	
		240.000	1344.44	10206.908	77.698	
		240.100	1346.24	10013.211	77.741	
		240.200	1348.04	9528.862	77.788	
		240.300	1349.82	9092.309	77.829	
		240.400	1351.57	8701.896	77.840	
		240.500	1353.26	7998.285	77.855	
		240.600	1354.82	7044.858	77.887	
		240.700	1356.32	6453.371	77.921	
		240.800	1357.75	6162.179	77.968	
		240.900	1359.12	6001.763	78.011	
		241.000	1360.44	5753.201	78.032	
		241.100	1361.71	5287.435	78.054	
		241.200	1362.95	5104.737	78.078	
		241.300	1364.13	5876.904	78.106	
		241.400	1365.27	7400.514	78.153	
		241.500	1366.36	8452.465	78.196	
		241.600	1367.40	8098.941	78.226	
		241.700	1368.40	7196.562	78.252	
		241.800	1369.36	6682.889	78.265	
		241.900	1370.30	6694.620	78.284	
		242.000	1371.21	6678.221	78.331	
		242.100	1372.11	6511.465	78.377	
		242.200	1372.98	6342.792	78.417	
		242.300	1373.83	6153.634	78.450	
		242.400	1374.65	5969.437	78.455	
		242.500	1375.44	5777.859	78.467	
		242.600	1376.21	5629.895	78.512	
		242.700	1376.94	5479.683	78.558	
		242.800	1377.66	5303.725	78.607	
		242.900	1378.33	5167.018	78.655	
		243.000	1378.98	5107.701	78.702	
		243.100	1379.62	5225.803	78.749	
		243.200	1380.25	5495.001	78.795	
		243.300	1380.89	5832.340	78.834	
		243.400	1381.55	6409.702	78.843	
		243.500	1382.24	7001.576	78.856	
		243.600	1382.96	7311.602	78.890	
		243.700	1383.73	7913.517	78.920	
		243.800	1384.54	8475.975	78.936	
		243.900	1385.41	8812.219	78.955	
		244.000	1386.33	8828.166	78.980	
		244.100	1387.32	8753.979	79.005	
		244.200	1388.35	8158.469	79.030	
		244.300	1389.40	7594.864	79.054	
		244.400	1390.45	7046.328	79.073	
		244.500	1391.47	6864.826	79.095	
		244.600	1392.43	6663.618	79.125	
		244.700	1393.35	6481.688	79.150	
		244.800	1394.24	6376.952	79.150	
		244.900	1395.10	6545.149	79.151	
		245.000	1395.95	6883.755	79.160	
		245.100	1396.79	6772.746	79.175	
		245.200	1397.63	6666.070	79.217	
		245.300	1398.48	6969.903	79.250	
		245.400	1399.33	7193.360	79.250	
		245.500	1400.20	7089.228	79.250	
		245.600	1401.07	7112.000	79.250	
		245.700	1401.96	7374.798	79.250	
		245.800	1402.88	7591.812	79.250	
		245.900	1403.81	7698.896	79.259	
		246.000	1404.77	7774.168	79.298	
		246.100	1405.76	8013.692	79.331	
		246.200	1406.80	8380.409	79.342	
		246.300	1407.87	8425.646	79.350	
		246.400	1408.98	8607.076	79.350	
		246.500	1410.11	8903.572	79.357	
		246.600	1411.28	8992.544	79.387	
		246.700	1412.45	8875.368	79.415	
		246.800	1413.62	8977.682	79.435	
		246.900	1414.80	9060.937	79.455	
		247.000	1415.99	9292.178	79.477	
		247.100	1417.20	9625.319	79.505	
		247.200	1418.42	9908.164	79.549	
		247.300	1419.68	10152.096	79.592	
		247.400	1420.95	10340.624	79.625	
		247.500	1422.24	10414.660	79.652	
		247.600	1423.56	10396.500	79.660	
		247.700	1424.87	10092.190	79.679	
		247.800	1426.17	9355.861	79.726	
		247.900	1427.46	8808.652	79.773	
		248.000	1428.73	8395.330	79.820	
		248.100	1429.98	8231.834	79.868	
		248.200	1431.20	9086.205	79.915	
		248.300	1432.41	9949.870	79.949	
		248.400	1433.60	9609.154	79.949	
		248.500	1434.79	9300.263	79.971	
		248.600	1435.99	9196.217	80.056	
		248.700	1437.20	9349.416	80.133	
		248.800	1438.43	9789.385	80.187	
		248.900	1439.66	10088.315	80.229	
		249.000	1440.91	10324.145	80.241	
		249.100	1442.18	10609.433	80.258	
		249.200	1443.47	10683.684	80.289	
		249.300	1444.78	10202.382	80.325	
		249.400	1446.11	9272.799	80.372	
		249.500	1447.41	8626.870	80.420	
		249.600	1448.69	8155.950	80.468	
		249.700	1449.92	8032.309	80.516	
		249.800	1451.09	7849.182	80.564	
		249.900	1452.20	7623.485	80.605	
		250.000	1453.25	7302.207	80.631	
		250.100	1454.24	6888.731	80.655	
		250.200	1455.19	6435.181	80.672	
		250.300	1456.11	6336.719	80.698	
		250.400	1457.02	7102.404	80.745	
		250.500	1457.91	7763.897	80.788	
		250.600	1458.83	7923.553	80.824	
		250.700	1459.76	8031.136	80.852	
		250.800	1460.70	7926.850	80.859	
		250.900	1461.64	7598.693	80.878	
		251.000	1462.58	7198.051	80.926	
		251.100	1463.53	6811.275	80.973	
		251.200	1464.43	6541.651	81.018	
		251.300	1465.32	6301.169	81.050	
		251.400	1466.17	5999.201	81.050	
		251.500	1466.99	5769.572	81.064	
		251.600	1467.78	5709.398	81.109	
		251.700	1468.57	5982.546	81.154	
		251.800	1469.35	6642.421	81.201	
		251.900	1470.16	7074.427	81.236	
		252.000	1471.00	6974.946	81.244	
		252.100	1471.86	7146.013	81.249	
		252.200	1472.76	7581.039	81.249	
		252.300	1473.71	8168.950	81.259	
		252.400	1474.69	8358.061	81.290	
		252.500	1475.69	8730.797	81.317	
		252.600	1476.73	9238.992	81.336	
		252.700	1477.81	9776.787	81.357	
		252.800	1478.90	10345.872	81.379	
		252.900	1480.02	10732.036	81.403	
		253.000	1481.17	10739.420	81.431	
		253.100	1482.35	10369.606	81.449	
		253.200	1483.57	9942.120	81.449	
		253.300	1484.82	9883.210	81.449	
		253.400	1486.12	10309.161	81.449	
		253.500	1487.45	10569.217	81.449	
		253.600	1488.82	9988.020	81.449	
		253.700	1490.23	9165.180	81.449	
		253.800	1491.70	8882.389	81.449	
		253.900	1493.22	8980.694	81.449	
		254.000	1494.81	9173.686	81.449	
		254.100	1496.48	9553.214	81.449	
		254.200	1498.21	9964.372	81.449	
		254.300	1500.00	10345.511	81.449	
		254.400	1501.84	10254.282	81.449	
		254.500	1503.72	9671.533	81.438	
		254.600	1505.65	9597.717	81.405	
		254.700	1507.62	10533.809	81.378	
		254.800	1509.63	10808.763	81.361	
		254.900	1511.71	10991.505	81.349	
		255.000	1513.82	11104.225	81.349	
		255.100	1515.99	11159.413	81.342	
		255.200	1518.19	11214.419	81.320	
		255.300	1520.44	10963.363	81.296	
		255.400	1522.70	10282.921	81.268	
		255.500	1524.97	9879.432	81.249	
		255.600	1527.21	9697.124	81.249	
		255.700	1529.43	9396.331	81.244	
		255.800	1531.55	8833.856	81.231	
		255.900	1533.59	8570.422	81.209	
		256.000	1535.53	8976.864	81.173	
		256.100	1537.37	9199.423	81.150	
		256.200	1539.13	8904.638	81.150	
		256.300	1540.80	8267.573	81.150	
		256.400	1542.40	7525.521	81.150	
		256.500	1543.94	6815.255	81.150	
		256.600	1545.40	6244.091	81.150	
		256.700	1546.81	6045.433	81.150	
		256.800	1548.17	6458.020	81.150	
		256.900	1549.49	7021.089	81.150	
		257.000	1550.76	7061.451	81.150	
		257.100	1552.01	6907.671	81.135	
		257.200	1553.24	6956.437	81.093	
		257.300	1554.44	7094.846	81.064	
		257.400	1555.63	7159.318	81.055	
		257.500	1556.81	7154.981	81.050	
		257.600	1558.01	7192.728	81.050	
		257.700	1559.22	7240.063	81.050	
		257.800	1560.47	7491.781	81.050	
		257.900	1561.76	7794.269	81.050	
		258.000	1563.10	8247.340	81.050	
		258.100	1564.47	8682.980	81.050	
		258.200	1565.90	8975.173	81.050	
		258.300	1567.38	9420.823	81.042	
		258.400	1568.92	9715.946	81.023	
		258.500	1570.52	10045.395	80.999	
		258.600	1572.17	10285.761	80.968	
		258.700	1573.87	10379.419	80.950	
		258.800	1575.62	10222.102	80.950	
		258.900	1577.37	9661.536	80.950	
		259.000	1579.12	9019.047	80.950	
		259.100	1580.86	8688.131	80.948	
		259.200	1582.54	8482.293	80.944	
		259.300	1584.15	8027.117	80.923	
		259.400	1585.69	7777.093	80.877	
		259.500	1587.17	8643.445	80.850	
		259.600	1588.57	9676.838	80.850	
		259.700	1589.89	9606.933	80.832	
		259.800	1591.15	9135.379	80.787	
		259.900	1592.33	8582.648	80.759	
		260.000	1593.46	8233.017	80.753	
		260.100	1594.52	7955.591	80.735	
		260.200	1595.53	7625.536	80.699	
		260.300	1596.49	7225.441	80.658	
		260.400	1597.40	6750.946	80.611	
		260.500	1598.28	6484.477	80.577	
		260.600	1599.17	6830.754	80.560	
		260.700	1600.06	7415.231	80.538	
		260.800	1600.97	7417.612	80.512	
		260.900	1601.90	7192.208	80.486	
		261.000	1602.85	7342.325	80.463	
		261.100	1603.82	7446.319	80.442	
		261.200	1604.78	7447.078	80.424	
		261.300	1605.76	7484.380	80.400	
		261.400	1606.74	7559.808	80.368	
		261.500	1607.72	7517.196	80.345	
		261.600	1608.71	7536.402	80.334	
		261.700	1609.70	7686.279	80.311	
		261.800	1610.70	7987.969	80.272	
		261.900	1611.69	8548.655	80.249	
		262.000	1612.70	9037.907	80.248	
		262.100	1613.74	9697.168	80.228	
		262.200	1614.80	10491.012	80.184	
		262.300	1615.91	11042.088	80.157	
		262.400	1617.07	11523.844	80.152	
		262.500	1618.26	11874.246	80.133	
		262.600	1619.52	11967.596	80.094	
		262.700	1620.82	11879.322	80.068	
		262.800	1622.18	11793.854	80.056	
		262.900	1623.61	11793.703	80.049	
		263.000	1625.11	12001.390	80.049	
		263.100	1626.66	12424.286	80.039	
		263.200	1628.25	12478.454	80.014	
		263.300	1629.88	11715.396	79.989	
		263.400	1631.49	10943.316	79.963	
		263.500	1633.08	10521.891	79.941	
		263.600	1634.61	10187.808	79.922	
		263.700	1636.09	9874.708	79.898	
		263.800	1637.49	9547.184	79.866	
		263.900	1638.83	9193.806	79.849	
		264.000	1640.09	8826.854	79.849	
		264.100	1641.30	8456.525	79.846	
		264.200	1642.45	8184.146	79.838	
		264.300	1643.56	8330.533	79.814	
		264.400	1644.65	9129.634	79.772	
		264.500	1645.74	9433.322	79.750	
		264.600	1646.85	8913.565	79.750	
		264.700	1647.96	8698.086	79.750	
		264.800	1649.10	8717.079	79.750	
		264.900	1650.25	8800.296	79.750	
		265.000	1651.40	8960.970	79.750	
		265.100	1652.53	9072.679	79.730	
		265.200	1653.65	9000.693	79.690	
		265.300	1654.77	8803.236	79.664	
		265.400	1655.88	8627.914	79.655	
		265.500	1656.99	8560.862	79.650	
		265.600	1658.12	8558.335	79.650	
		265.700	1659.24	8612.780	79.650	
		265.800	1660.36	8791.812	79.650	
		265.900	1661.47	8866.722	79.636	
		266.000	1662.60	8971.792	79.608	
		266.100	1663.73	9320.008	79.583	
		266.200	1664.89	9723.722	79.561	
		266.300	1666.08	10113.223	79.550	
		266.400	1667.32	10450.227	79.550	
		266.500	1668.60	10621.186	79.550	
		266.600	1669.92	10786.666	79.550	
		266.700	1671.28	11332.316	79.544	
		266.800	1672.69	11957.162	79.532	
		266.900	1674.14	11422.363	79.506	
		267.000	1675.63	10339.334	79.469	
		267.100	1677.19	10039.390	79.450	
		267.200	1678.78	10173.091	79.450	
		267.300	1680.42	10554.630	79.450	
		267.400	1682.11	11102.832	79.450	
		267.500	1683.87	11461.060	79.450	
		267.600	1685.69	11508.553	79.450	
		267.700	1687.57	11437.706	79.426	
		267.800	1689.51	11421.169	79.380	
		267.900	1691.49	11118.200	79.355	
		268.000	1693.46	10423.238	79.352	
		268.100	1695.43	9882.307	79.350	
		268.200	1697.36	9587.900	79.350	
		268.300	1699.23	9300.095	79.332	
		268.400	1701.02	9229.949	79.297	
		268.500	1702.73	9659.292	79.273	
		268.600	1704.35	9961.806	79.257	
		268.700	1705.90	9744.647	79.235	
		268.800	1707.35	9435.276	79.207	
		268.900	1708.73	9180.696	79.182	
		269.000	1710.02	8941.182	79.160	
		269.100	1711.24	8647.680	79.150	
		269.200	1712.39	8317.924	79.150	
		269.300	1713.48	7935.443	79.150	
		269.400	1714.53	7596.321	79.150	
		269.500	1715.53	7443.315	79.150	
		269.600	1716.50	7630.504	79.150	
		269.700	1717.44	7984.148	79.144	
		269.800	1718.36	7975.879	79.134	
		269.900	1719.27	8064.438	79.108	
		270.000	1720.18	8309.369	79.068	
		270.100	1721.10	8280.287	79.050	
		270.200	1722.02	8298.353	79.050	
		270.300	1722.93	8315.094	79.050	
		270.400	1723.85	8092.030	79.050	
		270.500	1724.79	7976.420	79.050	
		270.600	1725.76	8140.664	79.050	
		270.700	1726.75	8333.984	79.050	
		270.800	1727.77	8590.111	79.050	
		270.900	1728.83	8860.943	79.028	
		271.000	1729.89	8979.615	78.990	
		271.100	1730.96	9055.092	78.966	
		271.200	1732.06	9198.710	78.955	
		271.300	1733.17	9507.508	78.950	
		271.400	1734.31	9965.588	78.950	
		271.500	1735.49	10465.988	78.936	
		271.600	1736.70	10978.406	78.911	
		271.700	1737.98	11489.720	78.886	
		271.800	1739.30	11896.487	78.860	
		271.900	1740.67	11416.013	78.850	
		272.000	1742.10	10186.544	78.850	
		272.100	1743.58	9830.003	78.843	
		272.200	1745.13	10030.553	78.832	
		272.300	1746.75	10116.318	78.805	
		272.400	1748.43	10292.932	78.766	
		272.500	1750.20	10569.531	78.750	
		272.600	1752.03	10752.336	78.750	
		272.700	1753.92	10942.383	78.749	
		272.800	1755.87	11112.736	78.748	
		272.900	1757.88	10790.014	78.722	
		273.000	1759.93	10347.583	78.678	
		273.100	1762.02	10508.884	78.656	
		273.200	1764.17	10869.250	78.651	
		273.300	1766.35	11041.608	78.627	
		273.400	1768.57	11134.297	78.588	
		273.500	1770.82	11117.504	78.545	
		273.600	1773.12	10310.849	78.499	
		273.700	1775.44	9930.016	78.471	
		273.800	1777.81	10519.887	78.456	
		273.900	1780.20	10933.735	78.449	
		274.000	1782.65	11002.691	78.449	
		274.100	1785.09	10999.511	78.434	
		274.200	1787.54	10270.972	78.408	
		274.300	1789.98	9622.508	78.383	
		274.400	1792.40	9109.438	78.360	
		274.500	1794.74	8550.763	78.350	
		274.600	1797.00	8292.013	78.350	
		274.700	1799.15	8421.173	78.350	
		274.800	1801.18	9226.536	78.350	
		274.900	1803.09	10005.636	78.350	
		275.000	1804.89	9990.994	78.350	
		275.100	1806.59	9527.844	78.350	
		275.200	1808.20	8833.284	78.350	
		275.300	1809.71	8044.538	78.350	
		275.400	1811.14	7501.862	78.350	
		275.500	1812.49	7553.894	78.350	
		275.600	1813.75	8699.849	78.350	
		275.700	1814.94	9311.086	78.350	
		275.800	1816.05	8353.154	78.350	
		275.900	1817.10	7309.737	78.378	
		276.000	1818.09	6715.860	78.423	
		276.100	1819.03	6425.321	78.443	
		276.200	1819.93	6304.113	78.448	
		276.300	1820.80	6863.360	78.449	
		276.400	1821.65	7528.717	78.449	
		276.500	1822.51	7604.648	78.449	
		276.600	1823.38	7487.405	78.449	
		276.700	1824.27	7464.359	78.449	
		276.800	1825.18	7408.880	78.449	
		276.900	1826.11	7405.854	78.449	
		277.000	1827.06	7729.650	78.449	
		277.100	1828.03	8157.884	78.449	
		277.200	1829.02	8509.327	78.449	
		277.300	1830.06	8886.130	78.449	
		277.400	1831.14	9294.326	78.449	
		277.500	1832.28	9785.546	78.449	
		277.600	1833.47	10297.725	78.449	
		277.700	1834.73	10557.857	78.449	
		277.800	1836.05	10872.393	78.449	
		277.900	1837.43	11089.342	78.449	
		278.000	1838.88	11403.064	78.449	
		278.100	1840.38	11835.922	78.449	
		278.200	1841.92	12144.626	78.449	
		278.300	1843.50	12061.618	78.420	
		278.400	1845.10	11543.035	78.375	
		278.500	1846.69	12005.818	78.356	
		278.600	1848.30	13280.880	78.352	
		278.700	1849.88	13814.806	78.326	
		278.800	1851.45	13750.046	78.290	
		278.900	1853.01	13328.323	78.269	
		279.000	1854.57	13631.786	78.255	
		279.100	1856.15	12855.396	78.250	
		279.200	1857.74	11034.588	78.250	
		279.300	1859.39	9956.063	78.236	
		279.400	1861.06	9664.409	78.214	
		279.500	1862.80	9900.700	78.188	
		279.600	1864.57	10070.177	78.159	
		279.700	1866.36	9954.821	78.142	
		279.800	1868.15	9534.921	78.129	
		279.900	1869.93	8763.635	78.100	
		280.000	1871.66	8383.275	78.062	
		280.100	1873.35	9660.642	78.050	
		280.200	1874.96	10786.167	78.050	
		280.300	1876.49	10857.044	78.050	
		280.400	1877.95	10442.013	78.050	
		280.500	1879.35	9719.036	78.050	
		280.600	1880.70	9493.563	78.050	
		280.700	1882.01	9704.793	78.050	
		280.800	1883.27	9470.723	78.050	
		280.900	1884.51	8734.476	78.050	
		281.000	1885.68	7961.770	78.050	
		281.100	1886.81	7195.595	78.050	
		281.200	1887.90	6626.563	78.050	
		281.300	1888.96	6833.223	78.050	
		281.400	1890.00	7863.135	78.050	
		281.500	1891.02	8727.438	78.050	
		281.600	1892.05	8403.809	78.050	
		281.700	1893.07	7861.573	78.050	
		281.800	1894.10	7695.320	78.050	
		281.900	1895.13	7476.415	78.067	
		282.000	1896.16	7420.732	78.091	
		282.100	1897.19	7520.579	78.116	
		282.200	1898.21	7640.949	78.142	
		282.300	1899.21	7599.557	78.150	
		282.400	1900.20	7398.334	78.150	
		282.500	1901.19	7240.392	78.150	
		282.600	1902.16	7400.920	78.150	
		282.700	1903.13	7696.219	78.150	
		282.800	1904.08	7943.879	78.150	
		282.900	1905.02	7949.838	78.150	
		283.000	1905.95	7532.079	78.150	
		283.100	1906.87	6898.325	78.150	
		283.200	1907.76	6303.245	78.150	
		283.300	1908.63	5574.251	78.150	
		283.400	1909.47	4881.920	78.150	
		283.500	1910.26	4543.242	78.118	
		283.600	1911.01	4640.131	78.073	
		283.700	1911.73	4887.164	78.057	
		283.800	1912.44	5385.725	78.051	
		283.900	1913.15	6563.243	78.050	
		284.000	1913.86	7003.652	78.050	
		284.100	1914.61	7267.855	78.025	
		284.200	1915.42	7437.940	77.992	
		284.300	1916.30	7533.789	77.971	
		284.400	1917.25	7927.404	77.954	
		284.500	1918.28	8544.527	77.931	
		284.600	1919.38	8916.950	77.906	
		284.700	1920.53	8780.628	77.864	
		284.800	1921.69	8362.489	77.817	
		284.900	1922.87	8083.058	77.785	
		285.000	1924.03	7953.511	77.757	
		285.100	1925.18	7936.275	77.737	
		285.200	1926.31	8474.014	77.721	
		285.300	1927.44	9049.431	77.692	
		285.400	1928.57	8608.250	77.658	
		285.500	1929.70	8545.067	77.643	
		285.600	1930.85	8832.829	77.634	
		285.700	1932.00	9175.500	77.601	
		285.800	1933.18	9331.685	77.560	
		285.900	1934.38	9416.466	77.550	
		286.000	1935.60	9498.937	77.550	
		286.100	1936.83	9496.841	77.515	
		286.200	1938.09	9581.221	77.469	
		286.300	1939.36	9843.820	77.455	
		286.400	1940.65	10023.252	77.451	
		286.500	1941.94	10113.788	77.450	
		286.600	1943.24	10104.075	77.450	
		286.700	1944.55	10078.157	77.450	
		286.800	1945.87	10033.379	77.450	
		286.900	1947.19	9979.909	77.427	
		287.000	1948.51	9943.656	77.397	
		287.100	1949.82	9899.753	77.375	
		287.200	1951.13	9846.251	77.354	
		287.300	1952.43	9792.344	77.350	
		287.400	1953.73	9778.547	77.350	
		287.500	1955.03	9843.135	77.350	
		287.600	1956.33	9917.500	77.350	
		287.700	1957.63	9931.898	77.350	
		287.800	1958.90	9435.319	77.350	
		287.900	1960.15	8651.391	77.350	
		288.000	1961.37	8410.065	77.350	
		288.100	1962.55	8191.242	77.350	
		288.200	1963.67	7864.053	77.350	
		288.300	1964.73	7527.847	77.350	
		288.400	1965.73	7107.693	77.350	
		288.500	1966.69	6683.389	77.350	
		288.600	1967.59	6297.964	77.350	
		288.700	1968.47	6258.308	77.350	
		288.800	1969.33	6663.431	77.350	
		288.900	1970.18	7118.565	77.350	
		289.000	1971.04	7266.338	77.350	
		289.100	1971.90	7384.604	77.316	
		289.200	1972.80	7496.767	77.273	
		289.300	1973.70	7319.511	77.258	
		289.400	1974.61	7100.906	77.251	
		289.500	1975.54	6807.127	77.249	
		289.600	1976.44	6443.030	77.249	
		289.700	1977.33	6182.389	77.249	
		289.800	1978.17	6139.494	77.249	
		289.900	1978.99	5892.091	77.227	
		290.000	1979.78	5876.156	77.199	
		290.100	1980.57	6615.657	77.176	
		290.200	1981.37	7050.306	77.154	
		290.300	1982.19	7365.099	77.149	
		290.400	1983.06	7959.015	77.149	
		290.500	1983.98	8722.921	77.149	
		290.600	1984.96	9199.261	77.149	
		290.700	1985.99	9492.237	77.140	
		290.800	1987.08	9259.800	77.128	
		290.900	1988.19	9137.543	77.095	
		291.000	1989.32	9354.148	77.056	
		291.100	1990.47	9464.155	77.047	
		291.200	1991.63	9434.760	77.044	
		291.300	1992.80	9577.520	77.007	
		291.400	1994.00	9670.291	76.961	
		291.500	1995.25	9645.512	76.952	
		291.600	1996.51	9685.571	76.950	
		291.700	1997.80	9881.763	76.950	
		291.800	1999.10	9940.989	76.950	
		291.900	2000.41	10061.778	76.919	
		292.000	2001.73	10264.723	76.881	
		292.100	2003.04	10259.663	76.864	
		292.200	2004.36	10315.150	76.852	
		292.300	2005.68	10137.273	76.824	
		292.400	2006.99	10083.203	76.794	
		292.500	2008.31	10095.358	76.773	
		292.600	2009.64	10085.679	76.753	
		292.700	2010.98	10238.882	76.750	
		292.800	2012.31	10395.249	76.750	
		292.900	2013.62	10532.034	76.750	
		293.000	2014.94	10596.053	76.750	
		293.100	2016.24	10654.347	76.738	
		293.200	2017.57	10885.255	76.724	
		293.300	2018.92	11219.437	76.691	
		293.400	2020.31	11521.393	76.655	
		293.500	2021.76	11793.649	76.650	
		293.600	2023.27	11813.453	76.650	
		293.700	2024.84	11219.630	76.650	
		293.800	2026.48	9761.847	76.650	
		293.900	2028.17	9772.145	76.650	
		294.000	2029.91	10402.969	76.650	
		294.100	2031.69	10621.161	76.650	
		294.200	2033.51	10095.182	76.650	
		294.300	2035.33	9753.314	76.650	
		294.400	2037.15	9620.639	76.650	
		294.500	2038.92	9171.602	76.650	
		294.600	2040.66	9946.219	76.650	
		294.700	2042.30	10365.321	76.650	
		294.800	2043.84	10009.330	76.650	
		294.900	2045.30	9543.687	76.650	
		295.000	2046.67	9192.669	76.650	
		295.100	2047.96	8911.829	76.650	
		295.200	2049.18	8660.210	76.650	
		295.300	2050.34	8330.051	76.670	
		295.400	2051.42	7873.750	76.693	
		295.500	2052.44	7406.677	76.720	
		295.600	2053.40	6944.487	76.747	
		295.700	2054.34	6502.344	76.750	
		295.800	2055.25	6454.901	76.750	
		295.900	2056.17	7145.530	76.750	
		296.000	2057.10	7886.773	76.750	
		296.100	2058.06	7342.882	76.750	
		296.200	2059.02	7706.964	76.750	
		296.300	2060.01	8089.836	76.750	
		296.400	2061.00	7901.071	76.750	
		296.500	2061.99	7623.504	76.750	
		296.600	2062.98	7671.504	76.750	
		296.700	2063.98	8027.822	76.750	
		296.800	2064.99	8434.258	76.750	
		296.900	2066.05	8801.624	76.750	
		297.000	2067.15	9108.621	76.750	
		297.100	2068.29	9351.896	76.750	
		297.200	2069.49	9960.086	76.750	
		297.300	2070.74	10796.767	76.750	
		297.400	2072.03	11310.354	76.750	
		297.500	2073.37	11380.907	76.750	
		297.600	2074.74	11257.130	76.750	
		297.700	2076.11	11172.862	76.723	
		297.800	2077.49	10981.735	76.693	
		297.900	2078.86	10664.905	76.672	
		298.000	2080.21	10462.099	76.652	
		298.100	2081.56	10249.591	76.650	
		298.200	2082.88	10466.904	76.650	
		298.300	2084.19	10636.786	76.650	
		298.400	2085.51	11030.689	76.650	
		298.500	2086.80	11417.197	76.638	
		298.600	2088.09	10211.623	76.625	
		298.700	2089.40	9270.747	76.590	
		298.800	2090.73	9154.782	76.553	
		298.900	2092.08	9363.742	76.550	
		299.000	2093.48	9784.395	76.550	
		299.100	2094.94	10099.773	76.550	
		299.200	2096.45	10191.433	76.550	
		299.300	2098.02	10154.571	76.550	
		299.400	2099.65	10208.559	76.550	
		299.500	2101.36	10382.146	76.511	
		299.600	2103.12	10590.955	76.470	
		299.700	2104.97	10777.396	76.459	
		299.800	2106.87	10949.411	76.450	
		299.900	2108.81	11003.001	76.450	
		300.000	2110.76	10493.351	76.450	
		300.100	2112.69	9928.950	76.450	
		300.200	2114.56	9408.361	76.450	
		300.300	2116.36	8470.460	76.450	
		300.400	2118.09	7842.494	76.450	
		300.500	2119.72	7412.179	76.450	
		300.600	2121.27	7158.760	76.450	
		300.700	2122.79	6561.713	76.450	
		300.800	2124.24	5784.637	76.450	
		300.900	2125.63	5572.018	76.450	
		301.000	2126.97	6425.074	76.450	
		301.100	2128.25	7634.179	76.450	
		301.200	2129.48	8391.215	76.450	
		301.300	2130.67	8620.360	76.450	
		301.400	2131.85	8579.947	76.450	
		301.500	2133.01	9136.326	76.450	
		301.600	2134.17	9965.656	76.450	
		301.700	2135.36	9984.595	76.452	
		301.800	2136.60	10374.944	76.454	
		301.900	2137.86	10588.056	76.498	
		302.000	2139.20	10926.149	76.544	
		302.100	2140.58	11299.084	76.548	
		302.200	2142.01	11591.720	76.550	
		302.300	2143.45	11790.632	76.550	
		302.400	2144.94	11867.812	76.550	
		302.500	2146.45	10914.642	76.550	
		302.600	2147.99	9390.221	76.550	
		302.700	2149.57	9015.036	76.550	
		302.800	2151.16	9033.631	76.550	
		302.900	2152.75	8766.648	76.550	
		303.000	2154.36	8269.748	76.550	
		303.100	2155.92	7861.724	76.550	
		303.200	2157.45	7193.127	76.550	
		303.300	2158.93	6474.316	76.550	
		303.400	2160.36	6765.095	76.550	
		303.500	2161.72	8167.457	76.550	
		303.600	2163.01	9091.463	76.550	
		303.700	2164.26	9481.428	76.550	
		303.800	2165.42	9230.936	76.550	
		303.900	2166.53	8552.432	76.550	
		304.000	2167.58	8097.321	76.550	
		304.100	2168.57	7594.086	76.550	
		304.200	2169.50	7054.172	76.550	
		304.300	2170.37	6336.240	76.550	
		304.400	2171.19	5591.620	76.550	
		304.500	2171.96	4925.263	76.550	
		304.600	2172.70	4566.367	76.550	
		304.700	2173.40	4215.852	76.550	
		304.800	2174.09	4581.840	76.550	
		304.900	2174.80	6163.563	76.550	
		305.000	2175.51	8027.461	76.550	
		305.100	2176.27	9039.248	76.550	
		305.200	2177.09	9473.193	76.549	
		305.300	2177.95	9951.748	76.517	
		305.400	2178.88	10550.775	76.485	
		305.500	2179.88	10880.197	76.467	
		305.600	2180.96	11120.479	76.450	
		305.700	2182.12	11277.137	76.450	
		305.800	2183.37	11432.954	76.450	
		305.900	2184.70	11610.088	76.450	
		306.000	2186.14	11715.722	76.450	
		306.100	2187.63	12192.375	76.450	
		306.200	2189.18	12300.203	76.450	
		306.300	2190.77	11896.464	76.450	
		306.400	2192.36	10808.986	76.450	
		306.500	2193.94	9595.400	76.450	
		306.600	2195.50	9019.485	76.450	
		306.700	2196.97	8730.537	76.450	
		306.800	2198.38	8477.988	76.450	
		306.900	2199.70	8304.044	76.441	
		307.000	2200.94	8211.508	76.431	
		307.100	2202.12	8141.042	76.390	
		307.200	2203.24	8015.273	76.350	
		307.300	2204.33	7886.586	76.350	
		307.400	2205.39	8177.593	76.350	
		307.500	2206.47	8927.513	76.350	
		307.600	2207.53	8636.321	76.350	
		307.700	2208.61	8325.298	76.350	
		307.800	2209.70	8392.452	76.350	
		307.900	2210.79	8276.514	76.350	
		308.000	2211.87	8045.952	76.350	
		308.100	2212.96	7981.617	76.350	
		308.200	2214.02	8159.157	76.350	
		308.300	2215.09	8004.229	76.350	
		308.400	2216.13	8033.392	76.351	
		308.500	2217.16	8287.747	76.377	
		308.600	2218.19	8327.967	76.403	
		308.700	2219.23	8100.551	76.427	
		308.800	2220.28	8657.152	76.450	
		308.900	2221.35	8920.436	76.450	
		309.000	2222.46	9207.542	76.450	
		309.100	2223.59	9571.670	76.450	
		309.200	2224.76	10116.286	76.450	
		309.300	2225.97	10358.371	76.450	
		309.400	2227.23	10585.460	76.450	
		309.500	2228.55	10622.416	76.450	
		309.600	2229.92	10892.890	76.450	
		309.700	2231.35	10762.936	76.450	
		309.800	2232.85	9818.324	76.450	
		309.900	2234.38	9105.922	76.450	
		310.000	2235.96	9252.936	76.450	
		310.100	2237.59	9538.028	76.450	
		310.200	2239.28	9694.021	76.450	
		310.300	2241.01	10000.676	76.450	
		310.400	2242.78	10170.694	76.450	
		310.500	2244.60	10052.690	76.450	
		310.600	2246.42	9519.714	76.450	
		310.700	2248.21	9095.279	76.450	
		310.800	2249.95	8852.983	76.450	
		310.900	2251.64	8445.534	76.450	
		311.000	2253.23	7865.231	76.450	
		311.100	2254.76	7078.831	76.450	
		311.200	2256.22	6577.571	76.450	
		311.300	2257.65	6524.512	76.450	
		311.400	2259.04	7151.270	76.450	
		311.500	2260.44	8171.754	76.450	
		311.600	2261.84	8264.998	76.452	
		311.700	2263.24	7925.008	76.479	
		311.800	2264.63	7660.416	76.503	
		311.900	2266.00	7087.773	76.503	
		312.000	2267.35	6351.896	76.502	
		312.100	2268.66	5640.477	76.497	
		312.200	2269.86	4954.018	76.495	
		312.300	2271.00	4516.314	76.524	
		312.400	2272.07	4305.039	76.550	
		312.500	2273.07	4137.646	76.550	
		312.600	2274.01	4092.860	76.550	
		312.700	2274.90	4089.743	76.550	
		312.800	2275.73	4110.632	76.550	
		312.900	2276.51	4212.645	76.550	
		313.000	2277.22	4372.601	76.550	
		313.100	2277.87	4194.062	76.550	
		313.200	2278.47	3896.606	76.550	
		313.300	2279.03	3920.847	76.550	
		313.400	2279.56	4188.380	76.550	
		313.500	2280.08	4190.744	76.550	
		313.600	2280.60	4604.594	76.550	
		313.700	2281.11	4638.051	76.550	
		313.800	2281.64	4734.717	76.550	
		313.900	2282.19	4946.935	76.550	
		314.000	2282.76	5295.257	76.550	
		314.100	2283.36	5656.406	76.550	
		314.200	2284.01	5949.927	76.550	
		314.300	2284.72	6238.282	76.550	
		314.400	2285.50	6611.101	76.550	
		314.500	2286.33	6959.739	76.550	
		314.600	2287.22	7151.601	76.550	
		314.700	2288.18	7480.586	76.550	
		314.800	2289.18	8021.802	76.550	
		314.900	2290.22	8353.971	76.550	
		315.000	2291.28	7963.999	76.546	
		315.100	2292.35	7626.580	76.516	
		315.200	2293.40	7023.660	76.488	
		315.300	2294.43	6777.062	76.468	
		315.400	2295.42	6490.018	76.450	
		315.500	2296.35	5909.877	76.450	
		315.600	2297.22	5508.872	76.450	
		315.700	2298.03	5311.246	76.450	
		315.800	2298.80	5387.397	76.448	
		315.900	2299.55	5972.069	76.434	
		316.000	2300.28	6570.298	76.417	
		316.100	2301.03	6716.844	76.381	
		316.200	2301.81	6742.708	76.349	
		316.300	2302.64	6930.022	76.342	
		316.400	2303.51	7100.477	76.330	
		316.500	2304.44	7152.592	76.286	
		316.600	2305.42	7590.918	76.250	
		316.700	2306.45	8107.089	76.250	
		316.800	2307.51	8311.347	76.250	
		316.900	2308.61	8476.000	76.250	
		317.000	2309.73	8703.234	76.243	
		317.100	2310.88	8897.787	76.200	
		317.200	2312.04	9061.375	76.163	
		317.300	2313.21	9184.775	76.156	
		317.400	2314.40	9213.994	76.150	
		317.500	2315.58	9094.028	76.150	
		317.600	2316.77	9027.768	76.144	
		317.700	2317.96	9221.288	76.112	
		317.800	2319.16	9519.606	76.082	
		317.900	2320.38	9665.353	76.064	
		318.000	2321.61	9716.200	76.050	
		318.100	2322.84	9705.794	76.050	
		318.200	2324.11	9781.038	76.050	
		318.300	2325.38	9903.140	76.050	
		318.400	2326.64	9748.729	76.050	
		318.500	2327.89	9090.766	76.050	
		318.600	2329.13	8515.294	76.050	
		318.700	2330.34	8455.325	76.050	
		318.800	2331.55	9281.127	76.050	
		318.900	2332.74	9715.116	76.050	
		319.000	2333.94	9371.713	76.050	
		319.100	2335.14	9527.640	76.050	
		319.200	2336.36	9713.066	76.050	
		319.300	2337.60	9849.669	76.050	
		319.400	2338.86	10017.776	76.058	
		319.500	2340.14	10180.391	76.103	
		319.600	2341.43	10254.746	76.140	
		319.700	2342.73	9984.801	76.145	
		319.800	2344.02	9255.145	76.150	
		319.900	2345.29	8695.781	76.150	
		320.000	2346.53	8470.344	76.150	
		320.100	2347.75	8086.131	76.150	
		320.200	2348.92	7721.475	76.150	
		320.300	2350.04	7713.437	76.150	
		320.400	2351.12	7576.626	76.150	
		320.500	2352.16	7248.397	76.150	
		320.600	2353.14	6966.814	76.150	
		320.700	2354.10	6821.251	76.150	
		320.800	2355.02	6951.745	76.150	
		320.900	2355.93	7285.581	76.150	
		321.000	2356.84	7364.729	76.154	
		321.100	2357.74	7251.922	76.173	
		321.200	2358.66	7291.108	76.195	
		321.300	2359.58	7367.865	76.226	
		321.400	2360.50	7410.297	76.250	
		321.500	2361.42	7271.010	76.250	
		321.600	2362.33	6873.706	76.250	
		321.700	2363.23	6478.013	76.250	
		321.800	2364.11	6077.694	76.250	
		321.900	2364.95	5775.306	76.250	
		322.000	2365.77	5800.553	76.250	
		322.100	2366.57	6102.437	76.250	
		322.200	2367.36	6853.637	76.250	
		322.300	2368.16	7073.059	76.250	
		322.400	2369.00	7129.681	76.239	
		322.500	2369.88	7236.142	76.193	
		322.600	2370.82	7411.543	76.156	
		322.700	2371.82	7986.057	76.152	
		322.800	2372.88	8557.157	76.150	
		322.900	2373.97	9044.604	76.150	
		323.000	2375.10	9506.604	76.150	
		323.100	2376.25	9735.456	76.150	
		323.200	2377.42	9750.954	76.150	
		323.300	2378.60	9719.518	76.150	
		323.400	2379.79	9922.777	76.150	
		323.500	2381.00	10341.806	76.150	
		323.600	2382.23	10703.550	76.150	
		323.700	2383.49	10804.127	76.150	
		323.800	2384.79	10394.243	76.145	
		323.900	2386.14	9443.061	76.125	
		324.000	2387.56	8992.344	76.103	
		324.100	2389.03	9311.107	76.073	
		324.200	2390.57	9661.461	76.050	
		324.300	2392.20	9997.996	76.050	
		324.400	2393.88	10398.852	76.050	
		324.500	2395.64	10745.910	76.050	
		324.600	2397.46	10869.594	76.050	
		324.700	2399.34	10800.819	76.050	
		324.800	2401.27	9997.188	76.050	
		324.900	2403.25	9374.521	76.050	
		325.000	2405.29	10190.638	76.050	
		325.100	2407.35	10780.511	76.050	
		325.200	2409.45	11068.085	76.050	
		325.300	2411.59	11261.516	76.050	
		325.400	2413.79	11390.852	76.050	
		325.500	2416.05	11471.466	76.050	
		325.600	2418.34	11516.704	76.050	
		325.700	2420.68	11386.869	76.050	
		325.800	2423.04	10699.009	76.050	
		325.900	2425.37	9965.261	76.050	
		326.000	2427.67	9743.992	76.050	
		326.100	2429.92	9542.262	76.050	
		326.200	2432.08	9721.211	76.050	
		326.300	2434.16	10655.512	76.050	
		326.400	2436.18	11517.809	76.055	
		326.500	2438.12	10813.246	76.076	
		326.600	2439.99	10118.959	76.099	
		326.700	2441.76	10681.820	76.129	
		326.800	2443.44	11083.177	76.150	
		326.900	2445.04	10550.664	76.150	
		327.000	2446.54	9786.292	76.153	
		327.100	2447.97	9326.673	76.166	
		327.200	2449.32	8942.563	76.186	
		327.300	2450.64	8851.139	76.224	
		327.400	2451.90	9129.059	76.250	
		327.500	2453.15	9678.342	76.250	
		327.600	2454.39	10131.733	76.251	
		327.700	2455.64	10103.688	76.255	
		327.800	2456.90	9985.682	76.271	
		327.900	2458.18	10290.142	76.315	
		328.000	2459.48	10728.576	76.346	
		328.100	2460.83	11072.869	76.348	
		328.200	2462.19	11519.762	76.362	
		328.300	2463.59	12135.076	76.402	
		328.400	2465.03	12629.808	76.432	
		328.500	2466.52	13100.068	76.443	
		328.600	2468.06	13584.022	76.450	
		328.700	2469.65	13918.635	76.450	
		328.800	2471.28	13663.439	76.459	
		328.900	2472.97	13351.766	76.489	
		329.000	2474.68	13653.926	76.516	
		329.100	2476.42	13591.843	76.536	
		329.200	2478.16	13325.907	76.550	
		329.300	2479.90	12066.916	76.550	
		329.400	2481.61	11391.219	76.550	
		329.500	2483.28	10936.404	76.550	
		329.600	2484.91	10548.092	76.550	
		329.700	2486.43	10132.107	76.550	
		329.800	2487.86	9804.982	76.550	
		329.900	2489.23	9467.532	76.550	
		330.000	2490.51	9121.141	76.550	
		330.100	2491.73	8715.117	76.550	
		330.200	2492.89	8371.478	76.550	
		330.300	2493.99	8114.594	76.550	
		330.400	2495.05	7787.989	76.550	
		330.500	2496.05	7372.485	76.550	
		330.600	2497.01	7017.504	76.550	
		330.700	2497.93	6834.863	76.550	
		330.800	2498.82	6723.790	76.550	
		330.900	2499.71	6843.777	76.550	
		331.000	2500.60	7007.649	76.550	
		331.100	2501.50	6972.284	76.550	
		331.200	2502.40	6797.327	76.550	
		331.300	2503.31	7052.079	76.550	
		331.400	2504.24	7379.857	76.550	
		331.500	2505.19	7537.288	76.550	
		331.600	2506.18	7779.017	76.550	
		331.700	2507.20	8138.762	76.550	
		331.800	2508.24	8166.893	76.550	
		331.900	2509.30	8137.683	76.550	
		332.000	2510.35	8089.011	76.550	
		332.100	2511.41	8080.062	76.550	
		332.200	2512.46	8454.380	76.550	
		332.300	2513.52	9176.780	76.550	
		332.400	2514.59	9918.334	76.550	
		332.500	2515.69	10789.287	76.550	
		332.600	2516.82	11687.226	76.550	
		332.700	2518.01	12419.641	76.550	
		332.800	2519.24	12881.102	76.550	
		332.900	2520.53	13042.207	76.550	
		333.000	2521.88	13065.866	76.550	
		333.100	2523.30	12983.825	76.550	
		333.200	2524.80	12795.388	76.550	
		333.300	2526.35	12672.052	76.550	
		333.400	2527.97	12579.454	76.550	
		333.500	2529.61	11996.649	76.550	
		333.600	2531.23	11184.310	76.550	
		333.700	2532.83	10659.423	76.550	
		333.800	2534.37	10258.357	76.550	
		333.900	2535.85	9908.883	76.550	
		334.000	2537.23	9643.114	76.550	
		334.100	2538.55	9402.550	76.550	
		334.200	2539.82	9048.693	76.550	
		334.300	2541.02	8663.467	76.550	
		334.400	2542.17	8398.106	76.550	
		334.500	2543.30	8184.058	76.550	
		334.600	2544.40	8518.799	76.559	
		334.700	2545.50	9171.152	76.583	
		334.800	2546.60	9074.757	76.607	
		334.900	2547.72	8758.893	76.634	
		335.000	2548.86	8661.569	76.650	
		335.100	2550.00	8710.267	76.650	
		335.200	2551.13	8728.749	76.650	
		335.300	2552.25	8675.796	76.650	
		335.400	2553.35	8592.110	76.650	
		335.500	2554.44	8571.779	76.650	
		335.600	2555.53	8686.412	76.652	
		335.700	2556.64	8819.956	76.658	
		335.800	2557.77	8848.518	76.680	
		335.900	2558.91	8981.924	76.724	
		336.000	2560.06	9234.215	76.750	
		336.100	2561.22	9322.862	76.750	
		336.200	2562.39	9432.795	76.750	
		336.300	2563.58	9651.167	76.750	
		336.400	2564.79	9851.745	76.750	
		336.500	2566.03	10019.319	76.750	
		336.600	2567.30	10248.141	76.750	
		336.700	2568.61	10559.241	76.750	
		336.800	2569.96	11012.891	76.762	
		336.900	2571.34	11630.523	76.790	
		337.000	2572.77	12174.061	76.815	
		337.100	2574.23	12636.022	76.837	
		337.200	2575.76	12479.623	76.850	
		337.300	2577.33	11368.245	76.850	
		337.400	2578.96	10583.399	76.850	
		337.500	2580.65	10678.724	76.850	
		337.600	2582.40	10727.488	76.850	
		337.700	2584.22	10844.734	76.850	
		337.800	2586.10	11077.520	76.850	
		337.900	2588.06	11320.510	76.850	
		338.000	2590.10	11592.115	76.850	
		338.100	2592.15	11963.313	76.850	
		338.200	2594.23	11654.877	76.850	
		338.300	2596.29	10610.811	76.850	
		338.400	2598.31	10168.486	76.850	
		338.500	2600.26	10563.634	76.850	
		338.600	2602.12	11308.772	76.850	
		338.700	2603.85	11503.160	76.850	
		338.800	2605.49	10982.650	76.850	
		338.900	2607.02	10495.325	76.850	
		339.000	2608.47	10240.101	76.850	
		339.100	2609.84	9966.770	76.850	
		339.200	2611.15	9608.646	76.850	
		339.300	2612.40	9226.948	76.850	
		339.400	2613.60	8842.940	76.850	
		339.500	2614.77	8504.793	76.850	
		339.600	2615.87	8223.178	76.850	
		339.700	2616.93	7918.008	76.850	
		339.800	2617.95	7518.778	76.859	
		339.900	2618.95	7015.012	76.879	
		340.000	2619.93	6939.640	76.904	
		340.100	2620.91	7929.342	76.934	
		340.200	2621.88	9056.526	76.950	
		340.300	2622.88	9232.298	76.950	
		340.400	2623.89	8971.795	76.950	
		340.500	2624.91	8849.970	76.950	
		340.600	2625.95	8865.970	76.950	
		340.700	2627.01	8786.869	76.950	
		340.800	2628.08	8743.500	76.950	
		340.900	2629.15	8899.355	76.950	
		341.000	2630.23	9005.275	76.950	
		341.100	2631.32	8980.595	76.950	
		341.200	2632.40	8868.542	76.971	
		341.300	2633.48	8832.919	77.015	
		341.400	2634.57	8992.089	77.041	
		341.500	2635.67	9349.430	77.046	
		341.600	2636.78	9906.333	77.049	
		341.700	2637.93	10536.581	77.049	
		341.800	2639.14	11212.670	77.049	
		341.900	2640.39	11764.735	77.049	
		342.000	2641.71	12055.919	77.049	
		342.100	2643.10	11954.878	77.049	
		342.200	2644.56	11159.100	77.049	
		342.300	2646.09	10309.852	77.049	
		342.400	2647.68	10220.664	77.049	
		342.500	2649.34	10435.153	77.049	
		342.600	2651.08	10558.434	77.049	
		342.700	2652.87	10795.262	77.049	
		342.800	2654.73	10986.744	77.049	
		342.900	2656.65	11072.171	77.049	
		343.000	2658.65	11514.989	77.049	
		343.100	2660.69	11890.326	77.049	
		343.200	2662.78	10875.530	77.047	
		343.300	2664.94	10179.277	77.041	
		343.400	2667.11	10728.438	77.016	
		343.500	2669.32	11052.689	76.972	
		343.600	2671.57	11217.131	76.950	
		343.700	2673.88	11313.844	76.950	
		343.800	2676.24	11370.407	76.950	
		343.900	2678.65	11454.497	76.950	
		344.000	2681.12	11601.952	76.950	
		344.100	2683.65	11787.011	76.950	
		344.200	2686.20	11864.086	76.950	
		344.300	2688.75	11542.128	76.950	
		344.400	2691.28	10889.762	76.950	
		344.500	2693.79	10317.479	76.950	
		344.600	2696.23	9984.164	76.950	
		344.700	2698.57	10219.110	76.950	
		344.800	2700.80	11511.766	76.950	
		344.900	2702.94	12279.902	76.950	
		345.000	2704.93	11560.285	76.960	
		345.100	2706.80	10400.540	76.980	
		345.200	2708.56	9274.115	77.005	
		345.300	2710.21	8209.071	77.035	
		345.400	2711.75	7226.729	77.056	
		345.500	2713.19	6488.721	77.069	
		345.600	2714.55	6060.820	77.095	
		345.700	2715.82	5807.400	77.132	
		345.800	2717.02	5745.997	77.153	
		345.900	2718.18	5890.729	77.160	
		346.000	2719.31	6115.566	77.187	
		346.100	2720.40	6239.245	77.230	
		346.200	2721.48	6035.065	77.250	
		346.300	2722.54	5538.576	77.251	
		346.400	2723.58	5271.265	77.277	
		346.500	2724.58	5252.826	77.323	
		346.600	2725.57	5446.243	77.346	
		346.700	2726.54	5796.264	77.348	
		346.800	2727.51	5991.766	77.372	
		346.900	2728.49	6047.921	77.412	
		347.000	2729.48	6035.618	77.435	
		347.100	2730.51	6012.345	77.445	
		347.200	2731.55	6125.963	77.468	
		347.300	2732.62	6355.407	77.501	
		347.400	2733.72	6755.196	77.525	
		347.500	2734.86	6899.408	77.542	
		347.600	2736.03	6994.604	77.550	
		347.700	2737.24	7042.099	77.550	
		347.800	2738.50	7124.804	77.550	
		347.900	2739.81	7408.530	77.550	
		348.000	2741.17	7729.055	77.550	
		348.100	2742.57	8063.735	77.550	
		348.200	2744.02	8420.085	77.550	
		348.300	2745.52	8830.837	77.550	
		348.400	2747.08	9112.604	77.550	
		348.500	2748.70	9424.342	77.550	
		348.600	2750.36	9804.102	77.547	
		348.700	2752.11	10057.083	77.542	
		348.800	2753.88	10245.699	77.514	
		348.900	2755.72	10531.011	77.469	
		349.000	2757.60	10835.815	77.450	
		349.100	2759.54	11091.470	77.450	
		349.200	2761.53	11312.829	77.426	
		349.300	2763.56	11349.952	77.385	
		349.400	2765.61	10991.911	77.362	
		349.500	2767.63	10348.440	77.353	
		349.600	2769.63	9946.233	77.350	
		349.700	2771.60	9775.521	77.350	
		349.800	2773.55	9697.727	77.332	
		349.900	2775.47	9799.861	77.302	
		350.000	2777.37	9811.406	77.278	
		350.100	2779.24	9332.718	77.258	
		350.200	2781.09	8529.100	77.249	
		350.300	2782.86	7994.408	77.249	
		350.400	2784.53	7336.660	77.238	
		350.500	2786.12	6493.275	77.219	
		350.600	2787.62	5926.563	77.193	
		350.700	2789.03	5680.708	77.162	
		350.800	2790.35	5569.429	77.149	
		350.900	2791.59	5646.408	77.149	
		351.000	2792.77	5805.969	77.157	
		351.100	2793.90	5851.985	77.168	
		351.200	2794.99	6037.792	77.196	
		351.300	2796.07	6315.387	77.235	
		351.400	2797.15	6233.488	77.249	
		351.500	2798.24	6245.390	77.249	
		351.600	2799.33	6145.281	77.249	
		351.700	2800.45	6051.682	77.249	
		351.800	2801.56	6074.892	77.249	
		351.900	2802.66	5861.557	77.249	
		352.000	2803.75	5476.537	77.249	
		352.100	2804.80	5384.268	77.249	
		352.200	2805.82	5367.552	77.249	
		352.300	2806.80	5180.071	77.249	
		352.400	2807.74	5045.212	77.249	
		352.500	2808.65	4941.398	77.249	
		352.600	2809.51	4825.099	77.249	
		352.700	2810.34	4696.740	77.249	
		352.800	2811.14	4571.258	77.249	
		352.900	2811.91	4395.270	77.249	
		353.000	2812.66	4215.823	77.273	
		353.100	2813.39	4177.364	77.309	
		353.200	2814.11	4513.895	77.312	
		353.300	2814.82	4674.165	77.293	
		353.400	2815.55	4754.626	77.275	
		353.500	2816.30	4877.683	77.256	
		353.600	2817.09	4930.593	77.249	
		353.700	2817.92	4992.959	77.249	
		353.800	2818.79	5165.161	77.238	
		353.900	2819.69	6015.259	77.219	
		354.000	2820.65	8052.111	77.192	
		354.100	2821.63	10262.354	77.161	
		354.200	2822.65	10790.223	77.142	
		354.300	2823.68	9425.471	77.131	
		354.400	2824.75	8028.149	77.102	
		354.500	2825.83	7822.224	77.063	
		354.600	2826.93	8329.857	77.047	
		354.700	2828.05	8629.892	77.043	
		354.800	2829.18	8415.602	77.011	
		354.900	2830.30	8193.275	76.966	
		355.000	2831.41	8049.222	76.950	
		355.100	2832.53	8382.837	76.950	
		355.200	2833.66	9033.243	76.922	
		355.300	2834.80	9008.968	76.880	
		355.400	2835.95	8788.975	76.860	
		355.500	2837.12	8777.945	76.853	
		355.600	2838.30	8901.090	76.828	
		355.700	2839.49	9042.484	76.794	
		355.800	2840.70	9263.418	76.772	
		355.900	2841.91	9503.854	76.755	
		356.000	2843.13	9648.139	76.732	
		356.100	2844.37	9754.608	76.704	
		356.200	2845.63	9817.422	76.680	
		356.300	2846.90	9741.903	76.657	
		356.400	2848.17	9569.151	76.650	
		356.500	2849.44	9397.638	76.650	
		356.600	2850.71	9444.418	76.650	
		356.700	2851.97	9507.138	76.650	
		356.800	2853.23	9372.355	76.650	
		356.900	2854.47	9242.465	76.650	
		357.000	2855.70	9313.583	76.650	
		357.100	2856.95	9336.498	76.650	
		357.200	2858.18	9324.468	76.650	
		357.300	2859.42	9568.378	76.650	
		357.400	2860.66	9711.979	76.650	
		357.500	2861.90	9207.425	76.650	
		357.600	2863.12	8592.227	76.650	
		357.700	2864.32	8302.410	76.650	
		357.800	2865.50	8129.349	76.650	
		357.900	2866.62	7848.099	76.650	
		358.000	2867.68	7363.567	76.650	
		358.100	2868.69	6840.545	76.650	
		358.200	2869.64	6427.492	76.650	
		358.300	2870.56	6340.669	76.650	
		358.400	2871.47	7003.618	76.650	
		358.500	2872.38	8045.040	76.650	
		358.600	2873.31	8208.568	76.650	
		358.700	2874.23	7819.443	76.650	
		358.800	2875.16	7338.272	76.650	
		358.900	2876.10	6806.460	76.650	
		359.000	2877.03	6636.550	76.650	
		359.100	2877.96	6665.479	76.650	
		359.200	2878.86	6527.611	76.650	
		359.300	2879.74	6310.990	76.650	
		359.400	2880.57	6012.216	76.650	
		359.500	2881.38	5961.516	76.650	
		359.600	2882.17	6672.019	76.650	
		359.700	2882.97	7093.909	76.650	
		359.800	2883.78	7299.068	76.650	
		359.900	2884.62	7677.719	76.650	
		360.000	2885.51	8004.964	76.650	
		360.100	2886.46	8135.951	76.650	
		360.200	2887.47	8185.610	76.650	
		360.300	2888.52	8375.185	76.650	
		360.400	2889.63	8802.303	76.650	
		360.500	2890.77	9293.884	76.650	
		360.600	2891.96	9817.250	76.650	
		360.700	2893.17	10105.867	76.650	
		360.800	2894.41	9680.327	76.620	
		360.900	2895.69	8300.953	76.580	
		361.000	2896.99	7406.205	76.562	
		361.100	2898.30	7176.322	76.552	
		361.200	2899.62	7165.151	76.550	
		361.300	2900.95	7245.771	76.550	
		361.400	2902.27	7235.490	76.550	
		361.500	2903.59	7350.913	76.550	
		361.600	2904.91	7328.042	76.550	
		361.700	2906.21	7526.994	76.550	
		361.800	2907.50	7571.533	76.532	
		361.900	2908.80	7493.415	76.509	
		362.000	2910.11	7530.755	76.483	
		362.100	2911.43	7495.349	76.456	
		362.200	2912.76	7493.307	76.450	
		362.300	2914.10	7721.700	76.450	
		362.400	2915.44	7845.984	76.450	
		362.500	2916.78	8068.216	76.450	
		362.600	2918.12	8411.398	76.450	
		362.700	2919.49	8610.738	76.450	
		362.800	2920.91	8870.872	76.450	
		362.900	2922.37	9102.285	76.450	
		363.000	2923.90	9316.918	76.450	
		363.100	2925.50	9419.497	76.450	
		363.200	2927.18	9637.258	76.450	
		363.300	2928.92	10116.836	76.450	
		363.400	2930.74	10606.805	76.450	
		363.500	2932.61	10900.421	76.450	
		363.600	2934.54	11185.600	76.450	
		363.700	2936.51	11440.635	76.450	
		363.800	2938.48	10885.012	76.450	
		363.900	2940.47	9840.645	76.450	
		364.000	2942.40	8889.350	76.450	
		364.100	2944.26	7842.567	76.450	
		364.200	2946.02	6994.501	76.450	
		364.300	2947.69	6501.175	76.450	
		364.400	2949.26	6292.817	76.450	
		364.500	2950.75	6335.898	76.450	
		364.600	2952.15	6119.378	76.450	
		364.700	2953.49	5473.979	76.450	
		364.800	2954.74	5543.861	76.468	
		364.900	2955.92	5451.517	76.490	
		365.000	2957.04	4993.518	76.517	
		365.100	2958.11	4663.144	76.544	
		365.200	2959.14	4782.083	76.550	
		365.300	2960.14	5166.717	76.550	
		365.400	2961.11	5998.471	76.550	
		365.500	2962.06	7269.695	76.550	
		365.600	2962.99	8118.797	76.550	
		365.700	2963.93	8804.439	76.550	
		365.800	2964.88	9755.193	76.555	
		365.900	2965.88	10751.463	76.563	
		366.000	2966.91	11479.442	76.598	
		366.100	2968.01	11863.785	76.641	
		366.200	2969.17	11956.693	76.650	
		366.300	2970.37	11883.469	76.650	
		366.400	2971.61	11737.222	76.650	
		366.500	2972.89	11691.491	76.650	
		366.600	2974.20	11905.021	76.650	
		366.700	2975.54	11985.226	76.650	
		366.800	2976.89	11568.907	76.650	
		366.900	2978.23	10632.340	76.650	
		367.000	2979.58	10276.452	76.650	
		367.100	2980.91	10618.564	76.650	
		367.200	2982.23	11063.313	76.650	
		367.300	2983.54	11138.539	76.650	
		367.400	2984.84	10546.200	76.650	
		367.500	2986.15	10055.471	76.650	
		367.600	2987.45	9601.065	76.631	
		367.700	2988.77	8422.245	76.609	
		367.800	2990.09	8489.666	76.582	
		367.900	2991.39	8754.781	76.554	
		368.000	2992.72	9164.995	76.550	
		368.100	2994.09	9757.687	76.550	
		368.200	2995.51	10291.555	76.550	
		368.300	2996.98	10629.102	76.550	
		368.400	2998.52	10816.920	76.550	
		368.500	3000.14	10851.225	76.550	
		368.600	3001.81	10845.206	76.550	
		368.700	3003.56	10864.952	76.550	
		368.800	3005.37	10862.296	76.550	
		368.900	3007.25	10949.480	76.550	
		369.000	3009.16	10967.593	76.550	
		369.100	3011.10	10424.640	76.550	
		369.200	3013.06	9956.379	76.550	
		369.300	3014.99	9723.031	76.550	
		369.400	3016.85	9435.280	76.514	
		369.500	3018.68	9189.920	76.473	
		369.600	3020.43	8970.703	76.492	
		369.700	3022.10	8702.595	76.523	
		369.800	3023.73	8322.884	76.537	
		369.900	3025.30	8141.556	76.548	
		370.000	3026.85	7918.262	76.550	
		370.100	3028.34	7680.810	76.550	
		370.200	3029.80	7294.125	76.550	
		370.300	3031.23	6626.136	76.550	
		370.400	3032.63	5982.830	76.550	
		370.500	3034.01	5738.665	76.550	
		370.600	3035.36	5845.848	76.550	
		370.700	3036.69	6396.747	76.550	
		370.800	3038.02	7327.834	76.567	
		370.900	3039.33	7675.271	76.587	
		371.000	3040.63	7464.326	76.616	
		371.100	3041.95	7843.875	76.646	
		371.200	3043.29	7867.709	76.660	
		371.300	3044.65	8131.592	76.672	
		371.400	3046.05	8262.934	76.707	
		371.500	3047.50	8431.806	76.745	
		371.600	3048.97	8566.450	76.750	
		371.700	3050.46	8663.245	76.750	
		371.800	3051.98	8549.516	76.750	
		371.900	3053.50	8203.050	76.750	
		372.000	3055.01	7825.275	76.750	
		372.100	3056.48	7592.848	76.750	
		372.200	3057.92	7488.291	76.750	
		372.300	3059.33	7278.975	76.750	
		372.400	3060.67	7090.329	76.750	
		372.500	3061.95	6785.247	76.750	
		372.600	3063.19	6338.247	76.750	
		372.700	3064.37	5557.854	76.750	
		372.800	3065.51	4734.942	76.750	
		372.900	3066.61	4749.193	76.750	
		373.000	3067.66	4872.318	76.750	
		373.100	3068.69	5864.819	76.750	
		373.200	3069.68	7563.668	76.750	
		373.300	3070.66	9009.741	76.750	
		373.400	3071.62	9715.758	76.750	
		373.500	3072.59	10155.309	76.750	
		373.600	3073.58	10503.933	76.750	
		373.700	3074.60	10805.900	76.750	
		373.800	3075.65	11005.612	76.734	
		373.900	3076.73	11124.310	76.717	
		374.000	3077.83	11370.827	76.685	
		374.100	3078.94	11646.491	76.653	
		374.200	3080.07	11977.895	76.650	
		374.300	3081.22	12326.780	76.650	
		374.400	3082.40	12623.671	76.643	
		374.500	3083.61	12769.410	76.636	
		374.600	3084.88	12728.635	76.596	
		374.700	3086.19	12752.929	76.553	
		374.800	3087.56	12808.822	76.550	
		374.900	3089.02	12871.395	76.550	
		375.000	3090.53	12885.131	76.550	
		375.100	3092.11	12831.516	76.550	
		375.200	3093.73	11959.608	76.508	
		375.300	3095.38	10900.668	76.463	
		375.400	3097.03	10160.290	76.455	
		375.500	3098.64	9701.411	76.450	
		375.600	3100.19	9382.844	76.450	
		375.700	3101.67	9161.116	76.450	
		375.800	3103.08	9010.949	76.450	
		375.900	3104.40	8768.138	76.450	
		376.000	3105.65	8186.409	76.450	
		376.100	3106.84	7321.544	76.450	
		376.200	3107.95	6619.981	76.420	
		376.300	3109.01	6368.255	76.388	
		376.400	3110.04	6735.425	76.369	
		376.500	3111.05	7837.663	76.351	
		376.600	3112.05	8222.619	76.373	
		376.700	3113.05	7337.980	76.399	
		376.800	3114.05	7389.515	76.423	
		376.900	3115.07	7577.583	76.449	
		377.000	3116.08	7786.582	76.450	
		377.100	3117.10	7954.285	76.450	
		377.200	3118.11	8025.237	76.450	
		377.300	3119.14	8055.689	76.450	
		377.400	3120.16	8316.201	76.458	
		377.500	3121.19	8168.344	76.467	
		377.600	3122.24	7858.010	76.507	
		377.700	3123.27	7908.565	76.548	
		377.800	3124.32	8321.343	76.550	
		377.900	3125.39	8822.234	76.550	
		378.000	3126.48	9206.326	76.550	
		378.100	3127.61	9708.798	76.550	
		378.200	3128.78	10349.275	76.550	
		378.300	3130.00	11215.219	76.550	
		378.400	3131.29	10955.876	76.586	
		378.500	3132.62	10773.541	76.623	
		378.600	3134.01	9681.895	76.637	
		378.700	3135.45	8550.335	76.649	
		378.800	3136.96	8826.775	76.650	
		378.900	3138.53	9079.022	76.650	
		379.000	3140.15	9555.148	76.674	
		379.100	3141.85	10027.004	76.698	
		379.200	3143.62	10526.605	76.724	
		379.300	3145.40	10518.610	76.749	
		379.400	3147.23	9924.536	76.750	
		379.500	3149.05	9501.520	76.750	
		379.600	3150.85	9292.422	76.750	
		379.700	3152.62	9008.426	76.750	
		379.800	3154.34	8435.963	76.750	
		379.900	3155.99	7590.594	76.750	
		380.000	3157.55	6601.778	76.750	
		380.100	3159.06	5937.216	76.750	
		380.200	3160.52	5728.482	76.750	
		380.300	3161.94	5714.313	76.750	
		380.400	3163.34	5931.630	76.750	
		380.500	3164.72	6775.289	76.750	
		380.600	3166.08	7826.520	76.750	
		380.700	3167.43	7644.280	76.750	
		380.800	3168.73	7090.462	76.750	
		380.900	3170.03	6737.153	76.750	
		381.000	3171.30	6113.490	76.750	
		381.100	3172.52	5400.854	76.750	
		381.200	3173.71	5278.787	76.750	
		381.300	3174.82	5275.778	76.750	
		381.400	3175.85	5135.354	76.750	
		381.500	3176.79	4954.493	76.750	
		381.600	3177.63	4761.438	76.790	
		381.700	3178.36	4584.485	76.829	
		381.800	3179.03	4549.256	76.840	
		381.900	3179.63	4621.129	76.850	
		382.000	3180.19	4618.972	76.850	
		382.100	3180.75	4785.005	76.850	
		382.200	3181.34	4857.734	76.850	
		382.300	3181.93	5979.529	76.850	
		382.400	3182.57	6898.609	76.850	
		382.500	3183.25	7759.032	76.850	
		382.600	3183.98	9027.252	76.850	
		382.700	3184.77	9792.299	76.850	
		382.800	3185.61	10033.929	76.850	
		382.900	3186.51	9973.256	76.850	
		383.000	3187.47	9884.522	76.850	
		383.100	3188.48	9690.314	76.850	
		383.200	3189.54	8957.329	76.850	
		383.300	3190.63	8046.906	76.850	
		383.400	3191.74	7623.874	76.850	
		383.500	3192.83	7309.420	76.850	
		383.600	3193.87	7011.614	76.850	
		383.700	3194.88	6857.639	76.850	
		383.800	3195.84	6988.828	76.850	
		383.900	3196.76	7195.930	76.850	
		384.000	3197.65	6817.193	76.850	
		384.100	3198.53	6440.055	76.850	
		384.200	3199.40	6878.966	76.850	
		384.300	3200.27	7194.503	76.850	
		384.400	3201.14	7235.662	76.850	
		384.500	3202.03	7350.758	76.850	
		384.600	3202.92	7514.314	76.850	
		384.700	3203.82	7504.031	76.850	
		384.800	3204.75	7533.914	76.850	
		384.900	3205.70	7772.580	76.848	
		385.000	3206.69	8015.361	76.815	
		385.100	3207.71	8208.221	76.783	
		385.200	3208.77	8253.406	76.766	
		385.300	3209.85	8331.212	76.750	
		385.400	3210.95	8590.825	76.750	
		385.500	3212.06	8735.066	76.750	
		385.600	3213.17	8747.360	76.750	
		385.700	3214.29	8594.272	76.749	
		385.800	3215.41	8632.973	76.732	
		385.900	3216.53	8651.025	76.714	
		386.000	3217.68	8950.235	76.681	
		386.100	3218.83	9560.000	76.650	
		386.200	3220.01	9720.150	76.650	
		386.300	3221.20	9370.067	76.650	
		386.400	3222.43	8206.522	76.650	
		386.500	3223.68	7339.577	76.650	
		386.600	3224.95	7355.836	76.650	
		386.700	3226.25	7487.966	76.650	
		386.800	3227.58	7467.806	76.650	
		386.900	3228.90	7472.396	76.650	
		387.000	3230.21	7396.534	76.650	
		387.100	3231.51	7149.072	76.650	
		387.200	3232.80	6866.674	76.650	
		387.300	3234.06	6659.090	76.653	
		387.400	3235.29	6578.284	76.696	
		387.500	3236.51	6870.168	76.736	
		387.600	3237.72	7069.783	76.743	
		387.700	3238.91	6979.421	76.750	
		387.800	3240.12	6961.945	76.750	
		387.900	3241.34	6884.068	76.750	
		388.000	3242.57	7112.494	76.750	
		388.100	3243.82	7566.229	76.750	
		388.200	3245.09	7153.969	76.750	
		388.300	3246.37	7122.719	76.752	
		388.400	3247.65	6922.039	76.776	
		388.500	3248.91	6675.324	76.800	
		388.600	3250.16	6609.455	76.826	
		388.700	3251.38	6432.005	76.850	
		388.800	3252.57	6112.265	76.850	
		388.900	3253.71	5810.125	76.852	
		389.000	3254.82	5666.610	76.868	
		389.100	3255.90	5734.889	76.886	
		389.200	3256.96	5941.995	76.920	
		389.300	3257.98	5801.501	76.950	
		389.400	3258.99	5128.072	76.950	
		389.500	3259.97	5012.584	76.950	
		389.600	3260.92	5047.152	76.950	
		389.700	3261.85	4979.211	76.950	
		389.800	3262.76	4811.207	76.950	
		389.900	3263.63	4716.304	76.950	
		390.000	3264.47	4525.508	76.950	
		390.100	3265.30	4390.030	76.955	
		390.200	3266.11	4657.600	76.997	
		390.300	3266.92	4750.844	77.034	
		390.400	3267.73	4836.309	77.042	
		390.500	3268.54	4989.993	77.049	
		390.600	3269.38	5027.110	77.049	
		390.700	3270.22	4988.209	77.049	
		390.800	3271.09	4832.173	77.049	
		390.900	3271.97	4765.734	77.049	
		391.000	3272.87	4879.279	77.049	
		391.100	3273.78	5015.725	77.049	
		391.200	3274.70	5168.870	77.049	
		391.300	3275.65	5409.498	77.049	
		391.400	3276.61	5710.138	77.049	
		391.500	3277.59	5991.022	77.049	
		391.600	3278.60	6345.144	77.049	
		391.700	3279.64	6668.326	77.049	
		391.800	3280.70	6833.140	77.049	
		391.900	3281.80	7017.281	77.049	
		392.000	3282.93	7107.534	77.049	
		392.100	3284.11	7167.549	77.049	
		392.200	3285.32	7160.317	77.049	
		392.300	3286.59	7288.048	77.049	
		392.400	3287.89	7587.275	77.049	
		392.500	3289.26	8022.937	77.049	
		392.600	3290.68	8680.824	77.049	
		392.700	3292.17	9168.387	77.049	
		392.800	3293.72	9465.077	77.049	
		392.900	3295.37	9789.956	77.043	
		393.000	3297.07	10148.320	77.000	
		393.100	3298.85	10488.829	76.964	
		393.200	3300.70	10771.115	76.956	
		393.300	3302.62	11011.761	76.950	
		393.400	3304.61	11407.174	76.950	
		393.500	3306.65	11671.631	76.950	
		393.600	3308.75	11747.896	76.950	
		393.700	3310.88	10300.941	76.950	
		393.800	3313.04	10824.271	76.950	
		393.900	3315.24	11227.450	76.950	
		394.000	3317.48	11390.703	76.950	
		394.100	3319.76	11495.107	76.950	
		394.200	3322.08	11564.644	76.950	
		394.300	3324.41	11415.441	76.950	
		394.400	3326.79	10559.288	76.950	
		394.500	3329.12	9803.620	76.953	
		394.600	3331.38	9524.059	76.967	
		394.700	3333.58	8846.578	76.985	
		394.800	3335.68	8199.921	77.021	
		394.900	3337.62	8034.020	77.049	
		395.000	3339.46	8290.117	77.049	
		395.100	3341.22	8682.780	77.049	
		395.200	3342.91	8816.827	77.049	
		395.300	3344.53	8567.235	77.050	
		395.400	3346.08	8336.684	77.053	
		395.500	3347.59	8101.078	77.065	
		395.600	3349.06	7867.694	77.110	
		395.700	3350.50	7617.124	77.148	
		395.800	3351.89	7448.265	77.149	
		395.900	3353.27	7556.769	77.158	
		396.000	3354.61	8072.592	77.198	
		396.100	3355.96	8066.188	77.232	
		396.200	3357.30	7969.049	77.242	
		396.300	3358.65	7980.138	77.249	
		396.400	3360.01	8024.925	77.249	
		396.500	3361.37	8072.548	77.255	
		396.600	3362.74	8045.728	77.284	
		396.700	3364.13	7967.083	77.311	
		396.800	3365.51	8252.141	77.332	
		396.900	3366.91	8594.141	77.350	
		397.000	3368.33	9113.999	77.350	
		397.100	3369.79	9736.038	77.353	
		397.200	3371.30	10327.631	77.369	
		397.300	3372.86	10911.046	77.389	
		397.400	3374.51	11520.899	77.423	
		397.500	3376.20	11736.873	77.450	
		397.600	3377.93	11249.650	77.450	
		397.700	3379.70	10613.540	77.450	
		397.800	3381.48	9547.717	77.450	
		397.900	3383.26	8871.151	77.450	
		398.000	3385.01	8630.214	77.450	
		398.100	3386.68	8171.123	77.450	
		398.200	3388.28	7587.957	77.450	
		398.300	3389.79	6857.504	77.450	
		398.400	3391.19	5907.434	77.450	
		398.500	3392.50	5027.908	77.450	
		398.600	3393.70	4495.965	77.450	
		398.700	3394.81	4331.500	77.450	
		398.800	3395.84	4402.359	77.450	
		398.900	3396.81	4700.074	77.450	
		399.000	3397.75	5446.295	77.450	
		399.100	3398.66	6825.480	77.450	
		399.200	3399.57	8216.494	77.450	
		399.300	3400.48	8168.965	77.450	
		399.400	3401.40	7502.767	77.450	
		399.500	3402.34	7006.750	77.450	
		399.600	3403.28	6744.700	77.450	
		399.700	3404.24	7049.576	77.443	
		399.800	3405.17	7057.957	77.417	
		399.900	3406.11	7392.730	77.391	
		400.000	3407.05	7534.408	77.367	
		400.100	3408.01	7449.090	77.350	
		400.200	3408.97	7489.492	77.350	
		400.300	3409.94	7563.743	77.350	
		400.400	3410.92	7695.965	77.350	
		400.500	3411.92	7807.257	77.350	
		400.600	3412.90	8059.164	77.350	
		400.700	3413.89	8770.050	77.350	
		400.800	3414.91	9356.525	77.350	
		400.900	3415.96	10022.255	77.350	
		401.000	3417.04	10695.588	77.350	
		401.100	3418.16	11142.919	77.350	
		401.200	3419.34	10854.538	77.350	
		401.300	3420.58	10293.145	77.350	
		401.400	3421.86	10803.443	77.350	
		401.500	3423.20	11378.725	77.350	
		401.600	3424.62	11683.047	77.350	
		401.700	3426.10	12001.558	77.350	
		401.800	3427.64	12389.985	77.350	
		401.900	3429.24	12693.667	77.350	
		402.000	3430.87	12304.320	77.350	
		402.100	3432.49	11326.368	77.350	
		402.200	3434.09	10869.989	77.350	
		402.300	3435.63	10536.805	77.350	
		402.400	3437.10	10197.560	77.350	
		402.500	3438.51	9871.329	77.350	
		402.600	3439.85	9513.318	77.350	
		402.700	3441.13	9110.606	77.350	
		402.800	3442.37	8749.902	77.350	
		402.900	3443.55	8686.268	77.350	
		403.000	3444.71	9078.716	77.350	
		403.100	3445.85	9271.729	77.350	
		403.200	3446.99	8870.741	77.350	
		403.300	3448.14	9038.330	77.350	
		403.400	3449.30	9009.146	77.350	
		403.500	3450.47	8655.400	77.350	
		403.600	3451.63	8463.510	77.350	
		403.700	3452.78	8451.732	77.363	
		403.800	3453.88	8360.225	77.409	
		403.900	3454.95	8113.725	77.442	
		404.000	3456.01	7969.543	77.446	
		404.100	3457.06	8214.818	77.450	
		404.200	3458.12	8614.375	77.450	
		404.300	3459.21	8716.703	77.450	
		404.400	3460.32	8719.998	77.450	
		404.500	3461.45	9068.884	77.450	
		404.600	3462.59	9228.945	77.450	
		404.700	3463.75	9315.948	77.450	
		404.800	3464.91	9581.760	77.450	
		404.900	3466.10	10000.289	77.455	
		405.000	3467.32	10373.281	77.471	
		405.100	3468.60	10737.254	77.493	
		405.200	3469.90	10703.943	77.527	
		405.300	3471.24	9997.282	77.550	
		405.400	3472.62	9567.294	77.550	
		405.500	3474.04	9850.792	77.550	
		405.600	3475.50	10206.370	77.550	
		405.700	3476.99	10725.133	77.550	
		405.800	3478.55	11451.886	77.550	
		405.900	3480.14	12029.073	77.550	
		406.000	3481.78	12341.231	77.550	
		406.100	3483.47	12345.310	77.550	
		406.200	3485.23	12111.782	77.550	
		406.300	3487.04	11856.329	77.550	
		406.400	3488.92	11505.750	77.550	
		406.500	3490.85	11366.500	77.550	
		406.600	3492.86	11657.528	77.550	
		406.700	3494.87	11800.215	77.550	
		406.800	3496.90	11037.411	77.550	
		406.900	3498.92	10298.549	77.550	
		407.000	3500.89	9930.167	77.550	
		407.100	3502.79	9486.854	77.550	
		407.200	3504.61	8837.741	77.550	
		407.300	3506.36	8577.593	77.550	
		407.400	3507.98	9492.242	77.550	
		407.500	3509.51	10524.241	77.550	
		407.600	3510.96	10135.333	77.550	
		407.700	3512.31	9529.689	77.550	
		407.800	3513.58	8995.117	77.550	
		407.900	3514.77	8647.353	77.550	
		408.000	3515.91	8348.093	77.550	
		408.100	3517.00	8144.551	77.550	
		408.200	3518.03	7882.140	77.550	
		408.300	3519.02	7468.734	77.550	
		408.400	3519.98	7079.708	77.550	
		408.500	3520.92	6846.662	77.550	
		408.600	3521.85	6994.578	77.550	
		408.700	3522.78	7733.802	77.566	
		408.800	3523.72	8478.372	77.610	
		408.900	3524.67	8419.475	77.640	
		409.000	3525.61	7825.112	77.646	
		409.100	3526.57	7382.479	77.650	
		409.200	3527.53	7258.821	77.650	
		409.300	3528.49	7607.827	77.650	
		409.400	3529.46	8484.867	77.650	
		409.500	3530.44	9288.432	77.660	
		409.600	3531.43	9753.404	77.688	
		409.700	3532.45	10228.769	77.713	
		409.800	3533.50	10634.214	77.736	
		409.900	3534.59	10933.791	77.750	
		410.000	3535.71	11159.351	77.750	
		410.100	3536.87	11573.479	77.750	
		410.200	3538.08	12030.309	77.750	
		410.300	3539.34	12405.443	77.754	
		410.400	3540.67	12654.125	77.765	
		410.500	3542.05	12702.978	77.787	
		410.600	3543.50	12381.148	77.826	
		410.700	3545.01	11388.844	77.850	
		410.800	3546.60	9941.931	77.850	
		410.900	3548.24	9782.785	77.850	
		411.000	3549.95	10139.294	77.850	
		411.100	3551.73	10540.189	77.850	
		411.200	3553.58	10925.410	77.850	
		411.300	3555.49	11189.188	77.850	
		411.400	3557.46	11386.001	77.850	
		411.500	3559.49	11786.074	77.850	
		411.600	3561.57	12217.309	77.850	
		411.700	3563.71	11960.708	77.850	
		411.800	3565.89	11234.318	77.850	
		411.900	3568.13	10921.797	77.850	
		412.000	3570.40	11114.910	77.850	
		412.100	3572.70	11310.691	77.850	
		412.200	3575.04	11409.513	77.850	
		412.300	3577.44	11480.045	77.850	
		412.400	3579.88	11592.412	77.850	
		412.500	3582.36	11764.237	77.850	
		412.600	3584.89	11976.461	77.850	
		412.700	3587.46	11607.369	77.850	
		412.800	3589.99	10729.036	77.850	
		412.900	3592.50	10422.882	77.850	
		413.000	3594.94	10054.087	77.850	
		413.100	3597.29	9474.184	77.850	
		413.200	3599.54	9009.999	77.850	
		413.300	3601.67	9462.827	77.850	
		413.400	3603.69	10757.749	77.850	
		413.500	3605.59	11469.557	77.869	
		413.600	3607.38	12080.184	77.914	
		413.700	3609.07	12652.083	77.942	
		413.800	3610.65	12172.406	77.947	
		413.900	3612.14	11113.504	77.967	
		414.000	3613.53	10089.495	78.006	
		414.100	3614.83	9269.752	78.033	
		414.200	3616.06	8673.208	78.044	
		414.300	3617.20	8221.377	78.050	
		414.400	3618.27	7817.152	78.050	
		414.500	3619.30	7371.321	78.063	
		414.600	3620.28	7108.755	78.094	
		414.700	3621.23	6974.661	78.131	
		414.800	3622.15	6790.398	78.178	
		414.900	3623.06	7056.730	78.214	
		415.000	3623.99	7697.717	78.237	
		415.100	3624.90	8015.136	78.258	
		415.200	3625.83	8173.523	78.277	
		415.300	3626.78	8441.267	78.301	
		415.400	3627.77	8688.410	78.333	
		415.500	3628.78	8927.056	78.355	
		415.600	3629.84	9286.403	78.365	
		415.700	3630.96	9816.352	78.389	
		415.800	3632.11	10379.437	78.428	
		415.900	3633.32	10882.235	78.449	
		416.000	3634.58	11301.671	78.449	
		416.100	3635.88	11033.681	78.449	
		416.200	3637.23	10131.936	78.449	
		416.300	3638.64	9720.310	78.449	
		416.400	3640.11	9774.504	78.449	
		416.500	3641.65	9788.449	78.449	
		416.600	3643.25	9847.311	78.449	
		416.700	3644.90	10124.970	78.449	
		416.800	3646.61	10666.603	78.449	
		416.900	3648.37	11140.445	78.449	
		417.000	3650.17	11485.059	78.449	
		417.100	3652.02	11823.564	78.449	
		417.200	3653.89	11948.026	78.449	
		417.300	3655.81	11282.148	78.449	
		417.400	3657.75	10430.072	78.449	
		417.500	3659.73	10474.757	78.442	
		417.600	3661.73	10872.860	78.426	
		417.700	3663.77	11177.703	78.401	
		417.800	3665.82	10626.301	78.368	
		417.900	3667.88	9500.639	78.350	
		418.000	3669.93	8780.843	78.350	
		418.100	3671.91	8383.555	78.350	
		418.200	3673.84	8768.919	78.350	
		418.300	3675.69	9594.951	78.350	
		418.400	3677.45	9528.873	78.350	
		418.500	3679.13	8720.299	78.350	
		418.600	3680.75	8118.328	78.350	
		418.700	3682.29	7683.956	78.350	
		418.800	3683.79	7068.971	78.350	
		418.900	3685.22	6678.913	78.350	
		419.000	3686.58	6509.028	78.350	
		419.100	3687.87	6082.650	78.350	
		419.200	3689.09	5565.796	78.350	
		419.300	3690.25	5156.182	78.350	
		419.400	3691.35	4941.918	78.350	
		419.500	3692.40	4843.458	78.368	
		419.600	3693.38	4778.064	78.405	
		419.700	3694.31	4695.372	78.429	
		419.800	3695.19	4558.643	78.443	
		419.900	3696.02	4299.008	78.449	
		420.000	3696.82	4106.872	78.449	
		420.100	3697.59	4112.377	78.463	
		420.200	3698.33	4107.129	78.490	
		420.300	3699.05	4168.675	78.516	
		420.400	3699.74	4349.224	78.538	
		420.500	3700.40	4464.913	78.560	
		420.600	3701.02	4512.081	78.580	
		420.700	3701.61	4551.641	78.606	
		420.800	3702.16	4596.746	78.635	
		420.900	3702.68	4646.175	78.649	
		421.000	3703.16	4681.626	78.649	
		421.100	3703.62	4715.005	78.654	
		421.200	3704.05	4769.076	78.663	
		421.300	3704.45	4803.490	78.689	
		421.400	3704.83	4840.361	78.730	
		421.500	3705.18	4886.750	78.750	
		421.600	3705.52	4916.912	78.750	
		421.700	3705.83	4937.457	78.750	
		421.800	3706.12	4945.869	78.750	
		421.900	3706.40	4950.596	78.750	
		422.000	3706.65	4962.287	78.750	
		422.100	3706.88	4984.667	78.750	
		422.200	3707.09	5005.067	78.750	
		422.300	3707.28	5017.888	78.750	
		422.400	3707.45	5031.187	78.750	
		422.500	3707.61	5030.065	78.728	
		422.600	3707.74	4983.922	78.687	
		422.700	3707.86	4914.679	78.664	
		422.800	3707.96	4859.630	78.654	
		422.900	3708.04	4820.603	78.649	
		423.000	3708.10	4791.418	78.649	
		423.100	3708.15	4753.251	78.632	
		423.200	3708.18	4701.770	78.601	
		423.300	3708.20	4650.852	78.576	
		423.400	3708.21	4593.900	78.558	
		423.500	3708.21	4487.856	78.534	
		423.600	3708.21	4284.665	78.506	
		423.700	3708.22	4140.230	78.493	
		423.800	3708.23	4114.415	78.493	
		423.900	3708.24	4114.415	78.493	
		424.000	3708.25	4114.415	78.493	
		424.100	3708.25	4114.415	78.493	
		424.200	3708.26	4114.415	78.493	
		424.300	3708.27	4114.415	78.493	
		424.400	3708.28	4114.415	78.493	
		424.443	3708.28	4114.415	78.493	

Lap:
1	_07.04.443_	424.443	