	Time	Time (s)	H RPM [rpm]	H COOLANT [°C]	GPS_Speed [km/h]	
Lap: 1	 07.04.443	0.000	0.000	40.449	1.000	
		0.100	0.000	40.449	1.000	
		0.200	0.000	40.449	1.000	
		0.300	0.000	40.449	1.000	
		0.400	0.000	40.449	1.000	
		0.500	0.000	40.449	1.000	
		0.600	0.000	40.449	1.000	
		0.700	0.000	40.449	1.000	
		0.800	0.000	40.449	1.000	
		0.900	0.000	40.449	1.000	
		1.000	0.000	40.449	1.000	
		1.100	0.000	40.449	1.000	
		1.200	0.000	40.449	1.000	
		1.300	0.000	40.449	1.000	
		1.400	0.000	40.449	1.000	
		1.500	0.000	40.449	1.000	
		1.600	0.000	40.449	1.000	
		1.700	0.000	40.449	1.000	
		1.800	0.000	40.449	1.000	
		1.900	0.000	40.449	1.000	
		2.000	0.000	40.449	1.000	
		2.100	0.000	40.449	1.000	
		2.200	0.000	40.449	1.000	
		2.300	0.000	40.449	1.000	
		2.400	0.000	40.449	1.000	
		2.500	0.000	40.449	1.000	
		2.600	0.000	40.449	1.000	
		2.700	0.000	40.449	1.000	
		2.800	0.000	40.449	1.000	
		2.900	0.000	40.449	1.000	
		3.000	0.000	40.449	1.000	
		3.100	0.000	40.449	1.000	
		3.200	0.000	40.449	1.000	
		3.300	0.000	40.449	1.000	
		3.400	0.000	40.449	1.000	
		3.500	128.655	40.449	1.000	
		3.600	2587.310	40.449	1.000	
		3.700	2856.526	40.449	1.000	
		3.800	2838.979	40.449	1.000	
		3.900	2829.469	40.449	1.000	
		4.000	2865.444	40.449	1.000	
		4.100	2859.814	40.449	1.000	
		4.200	2956.864	40.449	1.000	
		4.300	2912.576	40.449	1.000	
		4.400	2568.190	40.449	1.000	
		4.500	2009.120	40.449	1.000	
		4.600	1479.328	40.449	1.000	
		4.700	1673.107	40.449	1.000	
		4.800	2343.908	40.449	1.000	
		4.900	2930.933	40.449	1.000	
		5.000	3037.766	40.449	1.000	
		5.100	3255.965	40.449	1.000	
		5.200	3968.486	40.449	1.000	
		5.300	3755.175	40.449	1.000	
		5.400	3901.342	40.449	1.000	
		5.500	3636.687	40.449	1.000	
		5.600	3271.371	40.447	1.000	
		5.700	3597.327	40.413	1.000	
		5.800	3880.208	40.380	1.000	
		5.900	3622.207	40.365	1.000	
		6.000	3275.465	40.350	1.000	
		6.100	3760.014	40.350	1.000	
		6.200	4067.135	40.350	1.000	
		6.300	3717.961	40.350	1.000	
		6.400	3528.971	40.350	1.000	
		6.500	3765.944	40.350	1.000	
		6.600	4064.193	40.350	1.000	
		6.700	4008.592	40.350	1.000	
		6.800	3739.819	40.350	1.000	
		6.900	3886.041	40.350	1.000	
		7.000	3859.654	40.350	1.000	
		7.100	3731.758	40.350	1.000	
		7.200	3655.384	40.350	1.000	
		7.300	3650.471	40.350	1.000	
		7.400	3699.449	40.351	1.000	
		7.500	3481.188	40.358	1.000	
		7.600	3377.044	40.368	1.000	
		7.700	3392.926	40.411	1.000	
		7.800	3586.837	40.449	1.000	
		7.900	3520.753	40.449	1.000	
		8.000	3167.422	40.449	1.000	
		8.100	3218.141	40.449	1.000	
		8.200	3686.131	40.449	1.000	
		8.300	3782.563	40.449	0.999	
		8.400	3315.507	40.449	0.994	
		8.500	3037.603	40.449	0.989	
		8.600	3173.687	40.454	0.984	
		8.700	3664.275	40.494	0.978	
		8.800	3909.307	40.531	0.973	
		8.900	4011.285	40.541	0.968	
		9.000	4045.214	40.549	0.963	
		9.100	3954.515	40.549	0.957	
		9.200	4006.660	40.549	0.952	
		9.300	3917.069	40.549	0.947	
		9.400	3841.189	40.553	0.941	
		9.500	3818.581	40.581	0.936	
		9.600	3733.052	40.608	0.931	
		9.700	3784.361	40.630	0.926	
		9.800	3838.567	40.649	0.920	
		9.900	3918.438	40.649	0.915	
		10.000	3859.300	40.649	0.910	
		10.100	3967.678	40.649	0.905	
		10.200	3920.220	40.652	0.887	
		10.300	3796.093	40.668	0.786	
		10.400	3569.099	40.687	0.672	
		10.500	3574.205	40.720	0.486	
		10.600	3948.128	40.750	0.386	
		10.700	3934.283	40.750	0.286	
		10.800	3628.740	40.750	0.193	
		10.900	3804.461	40.750	0.143	
		11.000	3901.041	40.750	0.099	
		11.100	3661.228	40.754	0.090	
		11.200	3979.571	40.765	0.080	
		11.300	3732.491	40.811	0.071	
		11.400	3921.696	40.850	0.062	
		11.500	3860.759	40.850	0.053	
		11.600	3749.232	40.850	0.044	
		11.700	3651.363	40.850	0.035	
		11.800	3749.855	40.855	0.026	
		11.900	3839.900	40.895	0.017	
		12.000	3805.033	40.929	0.008	
		12.100	3716.886	40.940	0.000	
		12.200	3756.894	40.950	0.000	
		12.300	3853.938	40.950	0.000	
		12.400	3828.733	40.954	0.000	
		12.500	3861.288	40.982	0.000	
		12.600	4123.254	41.010	0.000	
		12.700	4699.167	41.031	0.000	
		12.800	4864.257	41.050	0.000	
		12.900	5174.036	41.050	0.000	
		13.000	5816.216	41.053	0.000	
		13.100	6786.423	41.070	0.000	
		13.200	7601.876	41.091	0.000	
		13.300	7671.702	41.123	0.000	
		13.400	7588.666	41.150	0.000	
		13.500	7405.083	41.150	0.000	
		13.600	7021.369	41.151	0.000	
		13.700	6521.226	41.159	0.000	
		13.800	5905.089	41.173	0.000	
		13.900	5250.836	41.215	0.000	
		14.000	4811.693	41.250	0.000	
		14.100	4624.896	41.251	0.000	
		14.200	4369.420	41.260	0.000	
		14.300	4130.952	41.306	0.000	
		14.400	4165.984	41.345	0.000	
		14.500	4132.330	41.347	0.000	
		14.600	3985.457	41.350	0.000	
		14.700	3929.499	41.350	0.000	
		14.800	4004.180	41.357	0.000	
		14.900	4304.565	41.394	0.000	
		15.000	5059.194	41.427	0.000	
		15.100	5947.581	41.440	0.000	
		15.200	7029.772	41.456	0.000	
		15.300	7487.999	41.485	0.000	
		15.400	7555.093	41.513	0.000	
		15.500	7901.912	41.533	0.000	
		15.600	8006.099	41.554	0.000	
		15.700	7728.999	41.577	0.000	
		15.800	7714.320	41.601	0.000	
		15.900	7677.148	41.628	0.000	
		16.000	7795.951	41.653	0.000	
		16.100	7925.794	41.669	0.000	
		16.200	7735.968	41.689	0.000	
		16.300	7763.868	41.723	0.000	
		16.400	7718.823	41.752	0.000	
		16.500	7521.868	41.764	0.000	
		16.600	7122.938	41.781	0.000	
		16.700	6594.411	41.819	0.000	
		16.800	5936.096	41.851	0.000	
		16.900	5289.932	41.856	0.000	
		17.000	4878.189	41.870	0.000	
		17.100	4615.765	41.915	0.000	
		17.200	4306.270	41.949	0.000	
		17.300	4128.233	41.949	0.000	
		17.400	4106.915	41.960	0.000	
		17.500	4084.809	42.008	0.000	
		17.600	4078.573	42.055	0.000	
		17.700	4077.489	42.101	0.000	
		17.800	4113.252	42.139	0.000	
		17.900	4095.058	42.145	0.000	
		18.000	4127.490	42.159	0.000	
		18.100	4127.266	42.196	0.000	
		18.200	4110.237	42.236	0.000	
		18.300	4091.720	42.282	0.000	
		18.400	4110.366	42.329	0.000	
		18.500	4110.779	42.375	0.000	
		18.600	4146.066	42.416	0.000	
		18.700	4138.807	42.435	0.000	
		18.800	4120.217	42.455	0.000	
		18.900	4130.748	42.478	0.000	
		19.000	4137.786	42.507	0.000	
		19.100	4113.609	42.554	0.000	
		19.200	4141.815	42.601	0.000	
		19.300	4179.801	42.647	0.000	
		19.400	4118.605	42.691	0.000	
		19.500	4100.309	42.725	0.000	
		19.600	4058.990	42.752	0.000	
		19.700	4065.742	42.762	0.000	
		19.800	4233.689	42.782	0.000	
		19.900	4113.091	42.830	0.000	
		20.000	4090.715	42.878	0.000	
		20.100	4099.315	42.925	0.000	
		20.200	4105.885	42.973	0.000	
		20.300	4149.232	43.020	0.000	
		20.400	4132.656	43.066	0.000	
		20.500	4066.920	43.113	0.000	
		20.600	4083.189	43.147	0.000	
		20.700	4076.924	43.149	0.000	
		20.800	4073.269	43.161	0.000	
		20.900	4124.651	43.203	0.000	
		21.000	4114.234	43.247	0.000	
		21.100	4088.016	43.293	0.000	
		21.200	4139.869	43.330	0.000	
		21.300	4076.256	43.341	0.000	
		21.400	4066.215	43.359	0.000	
		21.500	4121.335	43.392	0.000	
		21.600	4139.766	43.429	0.000	
		21.700	4071.734	43.475	0.000	
		21.800	4126.536	43.523	0.000	
		21.900	4139.804	43.570	0.000	
		22.000	4134.107	43.610	0.000	
		22.100	4103.605	43.633	0.000	
		22.200	4110.416	43.656	0.000	
		22.300	4083.573	43.676	0.000	
		22.400	4099.111	43.704	0.000	
		22.500	4113.985	43.752	0.000	
		22.600	4111.063	43.799	0.000	
		22.700	4050.415	43.846	0.000	
		22.800	4046.246	43.890	0.000	
		22.900	4121.421	43.925	0.000	
		23.000	4118.240	43.952	0.000	
		23.100	4106.485	43.961	0.000	
		23.200	4101.950	43.982	0.000	
		23.300	4083.258	44.029	0.000	
		23.400	4147.401	44.075	0.000	
		23.500	4123.634	44.119	0.000	
		23.600	4090.324	44.150	0.000	
		23.700	4111.636	44.150	0.000	
		23.800	4114.950	44.164	0.000	
		23.900	4127.475	44.210	0.000	
		24.000	4075.259	44.257	0.000	
		24.100	4109.240	44.306	0.000	
		24.200	4116.615	44.340	0.000	
		24.300	4090.018	44.346	0.000	
		24.400	4069.043	44.362	0.000	
		24.500	4066.912	44.400	0.000	
		24.600	4072.989	44.441	0.000	
		24.700	4091.781	44.489	0.000	
		24.800	4077.313	44.536	0.000	
		24.900	4014.453	44.582	0.000	
		25.000	4037.873	44.628	0.000	
		25.100	4096.139	44.674	0.000	
		25.200	4077.440	44.712	0.000	
		25.300	4071.371	44.735	0.000	
		25.400	4055.388	44.757	0.000	
		25.500	4042.752	44.779	0.000	
		25.600	4105.243	44.811	0.000	
		25.700	4070.655	44.858	0.000	
		25.800	4101.194	44.900	0.000	
		25.900	4073.389	44.930	0.000	
		26.000	4093.487	44.955	0.000	
		26.100	4100.562	44.971	0.000	
		26.200	4038.415	44.997	0.000	
		26.300	4084.446	45.044	0.000	
		26.400	4096.631	45.088	0.000	
		26.500	4079.116	45.125	0.000	
		26.600	4074.356	45.152	0.000	
		26.700	4082.340	45.158	0.000	
		26.800	4071.734	45.178	0.000	
		26.900	4076.086	45.224	0.000	
		27.000	4103.734	45.271	0.000	
		27.100	4086.356	45.318	0.000	
		27.200	4080.098	45.349	0.000	
		27.300	4090.672	45.349	0.000	
		27.400	4072.327	45.382	0.000	
		27.500	4135.966	45.470	0.000	
		27.600	4108.586	45.531	0.000	
		27.700	4054.215	45.542	0.000	
		27.800	4026.397	45.564	0.000	
		27.900	4094.055	45.603	0.000	
		28.000	4122.994	45.645	0.000	
		28.100	4060.645	45.693	0.000	
		28.200	4094.766	45.728	0.000	
		28.300	4131.079	45.741	0.000	
		28.400	4091.955	45.761	0.000	
		28.500	4069.157	45.790	0.000	
		28.600	4079.135	45.826	0.000	
		28.700	4074.545	45.873	0.000	
		28.800	4083.322	45.912	0.000	
		28.900	4105.045	45.935	0.000	
		29.000	4087.693	45.958	0.000	
		29.100	4055.956	45.978	0.000	
		29.200	4084.620	46.009	0.000	
		29.300	4103.687	46.055	0.000	
		29.400	4073.297	46.097	0.000	
		29.500	4028.325	46.130	0.000	
		29.600	4081.542	46.154	0.000	
		29.700	4108.088	46.166	0.000	
		29.800	4118.537	46.191	0.000	
		29.900	4104.084	46.237	0.000	
		30.000	4095.389	46.284	0.000	
		30.100	4104.959	46.331	0.000	
		30.200	4099.027	46.377	0.000	
		30.300	4102.509	46.422	0.000	
		30.400	4117.381	46.450	0.000	
		30.500	4123.785	46.450	0.000	
		30.600	4109.472	46.467	0.000	
		30.700	4069.370	46.509	0.000	
		30.800	4063.525	46.554	0.000	
		30.900	4098.219	46.601	0.000	
		31.000	4174.972	46.648	0.000	
		31.100	4122.603	46.694	0.000	
		31.200	4070.069	46.727	0.000	
		31.300	4086.073	46.741	0.000	
		31.400	4132.847	46.761	0.000	
		31.500	4140.468	46.789	0.000	
		31.600	4116.899	46.825	0.000	
		31.700	4112.609	46.872	0.000	
		31.800	4083.937	46.910	0.000	
		31.900	4109.824	46.935	0.000	
		32.000	4140.561	46.957	0.000	
		32.100	4091.574	46.975	0.000	
		32.200	4111.179	47.005	0.000	
		32.300	4124.962	47.050	0.000	
		32.400	4128.642	47.092	0.000	
		32.500	4096.526	47.129	0.000	
		32.600	4118.958	47.152	0.000	
		32.700	4135.656	47.158	0.000	
		32.800	4088.319	47.182	0.000	
		32.900	4122.081	47.230	0.000	
		33.000	4107.841	47.277	0.000	
		33.100	4121.352	47.323	0.000	
		33.200	4109.197	47.350	0.000	
		33.300	4077.932	47.350	0.000	
		33.400	4098.692	47.370	0.000	
		33.500	4091.643	47.414	0.000	
		33.600	4118.051	47.460	0.000	
		33.700	4121.979	47.506	0.000	
		33.800	4104.366	47.536	0.000	
		33.900	4105.672	47.545	0.000	
		34.000	4125.160	47.565	0.000	
		34.100	4110.514	47.599	0.000	
		34.200	4095.696	47.638	0.000	
		34.300	4099.801	47.684	0.000	
		34.400	4120.680	47.718	0.000	
		34.500	4108.602	47.738	0.000	
		34.600	4099.887	47.760	0.000	
		34.700	4147.343	47.785	0.000	
		34.800	4126.149	47.819	0.000	
		34.900	4106.562	47.866	0.000	
		35.000	4141.455	47.905	0.000	
		35.100	4134.964	47.934	0.000	
		35.200	4098.456	47.956	0.000	
		35.300	4086.516	47.969	0.000	
		35.400	4113.379	47.997	0.000	
		35.500	4116.379	48.044	0.000	
		35.600	4102.503	48.090	0.000	
		35.700	4129.242	48.136	0.000	
		35.800	4147.214	48.182	0.000	
		35.900	4153.868	48.226	0.000	
		36.000	4129.908	48.250	0.000	
		36.100	4079.778	48.250	0.000	
		36.200	4077.407	48.272	0.000	
		36.300	4107.993	48.317	0.000	
		36.400	4100.231	48.362	0.000	
		36.500	4101.521	48.407	0.000	
		36.600	4110.555	48.435	0.000	
		36.700	4114.320	48.445	0.000	
		36.800	4135.596	48.466	0.000	
		36.900	4121.662	48.500	0.000	
		37.000	4129.729	48.525	0.000	
		37.100	4124.799	48.541	0.000	
		37.200	4096.204	48.563	0.000	
		37.300	4119.162	48.591	0.000	
		37.400	4131.773	48.628	0.000	
		37.500	4141.661	48.674	0.000	
		37.600	4143.660	48.721	0.000	
		37.700	4128.137	48.767	0.000	
		37.800	4103.025	48.805	0.000	
		37.900	4050.480	48.835	0.000	
		38.000	4100.983	48.856	0.000	
		38.100	4129.673	48.869	0.000	
		38.200	4107.753	48.894	0.000	
		38.300	4139.237	48.931	0.000	
		38.400	4154.388	48.953	0.000	
		38.500	4122.416	48.962	0.000	
		38.600	4107.153	48.989	0.000	
		38.700	4123.196	49.036	0.000	
		38.800	4104.834	49.082	0.000	
		38.900	4118.346	49.127	0.000	
		39.000	4088.970	49.150	0.000	
		39.100	4090.094	49.150	0.000	
		39.200	4130.540	49.173	0.000	
		39.300	4131.401	49.221	0.000	
		39.400	4126.261	49.245	0.000	
		39.500	4106.842	49.248	0.000	
		39.600	4107.813	49.271	0.000	
		39.700	4118.223	49.312	0.000	
		39.800	4116.229	49.357	0.000	
		39.900	4121.610	49.405	0.000	
		40.000	4112.034	49.434	0.000	
		40.100	4082.479	49.445	0.000	
		40.200	4104.871	49.467	0.000	
		40.300	4065.313	49.500	0.000	
		40.400	4068.358	49.539	0.000	
		40.500	4108.011	49.585	0.000	
		40.600	4085.243	49.618	0.000	
		40.700	4104.443	49.640	0.000	
		40.800	4147.438	49.662	0.000	
		40.900	4149.466	49.685	0.000	
		41.000	4132.059	49.721	0.000	
		41.100	4118.851	49.769	0.000	
		41.200	4114.724	49.807	0.000	
		41.300	4117.703	49.836	0.000	
		41.400	4107.576	49.857	0.000	
		41.500	4094.845	49.871	0.000	
		41.600	4102.101	49.897	0.000	
		41.700	4128.921	49.934	0.000	
		41.800	4142.836	49.953	0.000	
		41.900	4117.413	49.960	0.000	
		42.000	4087.197	49.988	0.000	
		42.100	4128.459	50.035	0.000	
		42.200	4141.837	50.082	0.000	
		42.300	4127.370	50.131	0.000	
		42.400	4115.154	50.178	0.000	
		42.500	4099.311	50.225	0.000	
		42.600	4121.068	50.272	0.000	
		42.700	4119.633	50.319	0.000	
		42.800	4123.329	50.367	0.000	
		42.900	4133.576	50.415	0.000	
		43.000	4144.089	50.462	0.000	
		43.100	4147.408	50.508	0.000	
		43.200	4135.001	50.554	0.000	
		43.300	4128.878	50.601	0.000	
		43.400	4122.564	50.647	0.000	
		43.500	4140.915	50.693	0.000	
		43.600	4161.256	50.739	0.000	
		43.700	4129.912	50.786	0.000	
		43.800	4120.361	50.818	0.000	
		43.900	4131.346	50.840	0.000	
		44.000	4261.288	50.862	0.000	
		44.100	4665.968	50.883	0.000	
		44.200	5203.436	50.930	0.000	
		44.300	5846.153	50.995	0.000	
		44.400	6478.382	51.068	0.000	
		44.500	6757.913	51.148	0.000	
		44.600	6696.645	51.202	0.000	
		44.700	6284.675	51.236	0.000	
		44.800	5633.643	51.256	0.000	
		44.900	5022.281	51.266	0.000	
		45.000	4639.147	51.298	0.000	
		45.100	4359.947	51.345	0.000	
		45.200	4128.528	51.392	0.000	
		45.300	4037.312	51.438	0.000	
		45.400	4005.156	51.486	0.000	
		45.500	3970.427	51.534	0.000	
		45.600	3981.516	51.581	0.000	
		45.700	4009.110	51.628	0.000	
		45.800	4028.709	51.675	0.000	
		45.900	4033.137	51.722	0.000	
		46.000	4007.477	51.768	0.000	
		46.100	3991.917	51.814	0.000	
		46.200	3971.205	51.838	0.000	
		46.300	3987.851	51.846	0.000	
		46.400	3976.678	51.872	0.000	
		46.500	3953.909	51.909	0.000	
		46.600	3950.287	51.953	0.000	
		46.700	3958.542	52.000	0.000	
		46.800	3997.707	52.048	0.000	
		46.900	4008.469	52.096	0.000	
		47.000	3992.291	52.145	0.000	
		47.100	3958.882	52.193	0.000	
		47.200	3990.559	52.240	0.000	
		47.300	4031.078	52.288	0.000	
		47.400	4021.704	52.335	0.000	
		47.500	4009.106	52.382	0.000	
		47.600	4027.510	52.429	0.000	
		47.700	4034.426	52.477	0.000	
		47.800	4014.728	52.524	0.000	
		47.900	4007.870	52.571	0.000	
		48.000	4006.561	52.619	0.000	
		48.100	4004.677	52.667	0.000	
		48.200	4000.129	52.715	0.000	
		48.300	3975.436	52.763	0.000	
		48.400	3969.077	52.811	0.000	
		48.500	3987.507	52.860	0.000	
		48.600	4004.863	52.909	0.000	
		48.700	4008.044	52.958	0.000	
		48.800	3958.684	53.000	0.000	
		48.900	3953.397	53.037	0.000	
		49.000	3984.817	53.055	0.000	
		49.100	3999.972	53.064	0.000	
		49.200	3964.312	53.098	0.000	
		49.300	3956.909	53.146	0.000	
		49.400	3979.764	53.193	0.000	
		49.500	3997.623	53.241	0.000	
		49.600	3992.884	53.288	0.000	
		49.700	3977.562	53.335	0.000	
		49.800	3960.970	53.382	0.000	
		49.900	3941.822	53.430	0.000	
		50.000	4065.953	53.477	0.000	
		50.100	4511.118	53.522	0.000	
		50.200	5497.232	53.568	0.000	
		50.300	7331.933	53.613	0.000	
		50.400	9069.099	53.659	0.000	
		50.500	9362.642	53.705	0.000	
		50.600	8467.523	53.752	0.000	
		50.700	7329.575	53.799	0.000	
		50.800	6261.993	53.826	0.000	
		50.900	5305.485	53.844	0.000	
		51.000	4656.684	53.867	0.000	
		51.100	4306.083	53.894	0.000	
		51.200	4102.090	53.935	0.000	
		51.300	3998.779	53.982	0.000	
		51.400	3935.985	54.030	0.000	
		51.500	3907.940	54.079	0.000	
		51.600	3915.711	54.127	0.000	
		51.700	3923.405	54.175	0.000	
		51.800	3934.666	54.223	0.000	
		51.900	3974.406	54.271	0.000	
		52.000	3997.565	54.308	0.000	
		52.100	3984.653	54.340	0.000	
		52.200	3981.092	54.360	0.000	
		52.300	3984.670	54.373	0.000	
		52.400	3977.018	54.411	0.000	
		52.500	3974.406	54.458	0.000	
		52.600	3961.001	54.506	0.000	
		52.700	3962.746	54.553	0.000	
		52.800	3969.457	54.601	0.000	
		52.900	3956.769	54.650	0.000	
		53.000	3944.272	54.699	0.000	
		53.100	3958.327	54.747	0.000	
		53.200	3988.500	54.792	0.000	
		53.300	3966.773	54.836	0.000	
		53.400	3927.810	54.851	0.000	
		53.500	3906.534	54.852	0.000	
		53.600	3898.927	54.919	0.000	
		53.700	3868.539	55.012	0.000	
		53.800	3864.335	55.076	0.000	
		53.900	3913.781	55.126	0.000	
		54.000	3964.340	55.143	0.000	
		54.100	3998.208	55.148	0.000	
		54.200	3995.455	55.179	0.000	
		54.300	3997.099	55.220	0.000	
		54.400	4029.255	55.267	0.000	
		54.500	4016.125	55.316	0.000	
		54.600	3979.238	55.365	0.000	
		54.700	3964.065	55.413	0.000	
		54.800	3966.902	55.435	0.000	
		54.900	3977.063	55.447	0.000	
		55.000	3979.229	55.474	0.000	
		55.100	3964.882	55.509	0.000	
		55.200	4009.290	55.552	0.000	
		55.300	4010.468	55.600	0.000	
		55.400	3973.302	55.647	0.000	
		55.500	3970.046	55.694	0.000	
		55.600	3982.104	55.722	0.000	
		55.700	3994.569	55.744	0.000	
		55.800	3937.849	55.767	0.000	
		55.900	3870.756	55.791	0.000	
		56.000	3855.573	55.832	0.000	
		56.100	3850.211	55.879	0.000	
		56.200	3865.478	55.926	0.000	
		56.300	3912.440	55.973	0.000	
		56.400	3946.520	56.021	0.000	
		56.500	3953.290	56.068	0.000	
		56.600	3968.183	56.106	0.000	
		56.700	3978.842	56.141	0.000	
		56.800	3959.466	56.158	0.000	
		56.900	3970.749	56.169	0.000	
		57.000	3945.605	56.207	0.000	
		57.100	3974.187	56.254	0.000	
		57.200	4006.047	56.301	0.000	
		57.300	4038.928	56.348	0.000	
		57.400	4004.758	56.394	0.000	
		57.500	3967.686	56.438	0.000	
		57.600	3973.667	56.450	0.000	
		57.700	3979.418	56.451	0.000	
		57.800	3991.642	56.487	0.000	
		57.900	4014.465	56.534	0.000	
		58.000	4006.944	56.581	0.000	
		58.100	4009.196	56.628	0.000	
		58.200	3988.229	56.643	0.000	
		58.300	3953.818	56.649	0.000	
		58.400	3954.648	56.681	0.000	
		58.500	3975.023	56.721	0.000	
		58.600	3993.551	56.766	0.000	
		58.700	3985.260	56.813	0.000	
		58.800	3961.248	56.860	0.000	
		58.900	3970.392	56.907	0.000	
		59.000	4000.754	56.930	0.000	
		59.100	3966.055	56.946	0.000	
		59.200	3974.209	56.973	0.000	
		59.300	3979.882	57.002	0.000	
		59.400	3955.744	57.045	0.000	
		59.500	3948.600	57.092	0.000	
		59.600	3972.979	57.140	0.000	
		59.700	3937.137	57.187	0.000	
		59.800	3914.855	57.217	0.000	
		59.900	3923.516	57.244	0.000	
		60.000	3916.059	57.264	0.000	
		60.100	3907.828	57.282	0.000	
		60.200	3902.819	57.323	0.000	
		60.300	3904.927	57.371	0.000	
		60.400	3926.112	57.418	0.000	
		60.500	3950.204	57.465	0.000	
		60.600	3970.813	57.505	0.000	
		60.700	3947.044	57.542	0.000	
		60.800	3940.640	57.557	0.000	
		60.900	3980.828	57.567	0.000	
		61.000	3968.492	57.607	0.000	
		61.100	3931.098	57.655	0.000	
		61.200	3964.753	57.698	0.000	
		61.300	3954.523	57.741	0.000	
		61.400	4018.996	57.752	0.000	
		61.500	3993.551	57.755	0.000	
		61.600	3971.740	57.795	0.000	
		61.700	3987.722	57.843	0.000	
		61.800	3967.065	57.891	0.000	
		61.900	3970.586	57.938	0.000	
		62.000	3978.535	57.985	0.000	
		62.100	3988.238	58.032	0.000	
		62.200	3976.453	58.045	0.000	
		62.300	3953.874	58.049	0.000	
		62.400	3934.073	58.083	0.000	
		62.500	3933.312	58.124	0.000	
		62.600	3941.998	58.171	0.000	
		62.700	3932.852	58.219	0.000	
		62.800	3953.187	58.237	0.000	
		62.900	3992.424	58.248	0.000	
		63.000	4047.422	58.277	0.000	
		63.100	4302.870	58.309	0.000	
		63.200	4565.442	58.353	0.000	
		63.300	4801.205	58.398	0.000	
		63.400	4808.660	58.444	0.000	
		63.500	4621.250	58.490	0.000	
		63.600	4391.560	58.519	0.000	
		63.700	4143.599	58.546	0.000	
		63.800	4037.091	58.565	0.000	
		63.900	4396.246	58.583	0.000	
		64.000	4921.997	58.625	0.000	
		64.100	5938.520	58.673	0.000	
		64.200	6753.787	58.720	0.000	
		64.300	6986.180	58.768	0.000	
		64.400	6763.243	58.807	0.000	
		64.500	6210.155	58.844	0.000	
		64.600	5503.086	58.855	0.000	
		64.700	4888.922	58.862	0.000	
		64.800	4454.507	58.903	0.000	
		64.900	4190.998	58.950	0.000	
		65.000	4096.792	58.998	0.000	
		65.100	4053.413	59.046	0.000	
		65.200	3972.172	59.095	0.000	
		65.300	3929.955	59.143	0.000	
		65.400	3914.731	59.150	0.000	
		65.500	3821.375	59.150	0.000	
		65.600	3710.714	59.188	0.000	
		65.700	3619.353	59.232	0.000	
		65.800	3577.261	59.279	0.000	
		65.900	3600.694	59.326	0.000	
		66.000	3591.462	59.375	0.000	
		66.100	3661.004	59.423	0.000	
		66.200	3618.418	59.438	0.000	
		66.300	3648.597	59.448	0.000	
		66.400	3633.356	59.482	0.000	
		66.500	3593.955	59.520	0.000	
		66.600	3599.379	59.566	0.000	
		66.700	3623.126	59.615	0.000	
		66.800	3658.672	59.663	0.000	
		66.900	3657.245	59.711	0.000	
		67.000	3578.340	59.731	0.000	
		67.100	3600.028	59.748	0.000	
		67.200	3651.907	59.774	0.000	
		67.300	3690.719	59.802	0.000	
		67.400	3719.147	59.848	0.000	
		67.500	3720.127	59.896	0.000	
		67.600	3699.569	59.923	0.000	
		67.700	3684.440	59.947	0.000	
		67.800	3717.690	59.969	0.000	
		67.900	3777.652	59.991	0.000	
		68.000	3841.146	60.036	0.000	
		68.100	3915.661	60.084	0.000	
		68.200	4000.131	60.132	0.000	
		68.300	4054.993	60.181	0.000	
		68.400	4054.434	60.228	0.000	
		68.500	4042.206	60.276	0.000	
		68.600	4018.480	60.323	0.000	
		68.700	4075.366	60.371	0.000	
		68.800	4019.297	60.417	0.000	
		68.900	3971.136	60.464	0.000	
		69.000	4024.837	60.513	0.000	
		69.100	4041.552	60.561	0.000	
		69.200	4010.563	60.608	0.000	
		69.300	3980.598	60.655	0.000	
		69.400	3986.162	60.702	0.000	
		69.500	3984.236	60.749	0.000	
		69.600	3953.848	60.797	0.000	
		69.700	3936.985	60.844	0.000	
		69.800	3946.288	60.893	0.000	
		69.900	3967.186	60.941	0.000	
		70.000	3986.123	60.988	0.000	
		70.100	3990.585	61.034	0.000	
		70.200	3990.447	61.082	0.000	
		70.300	3954.824	61.129	0.000	
		70.400	3949.357	61.176	0.000	
		70.500	3956.945	61.225	0.000	
		70.600	3994.307	61.272	0.000	
		70.700	3976.289	61.320	0.000	
		70.800	3966.530	61.367	0.000	
		70.900	3980.703	61.414	0.000	
		71.000	3940.445	61.461	0.000	
		71.100	3889.763	61.508	0.000	
		71.200	3821.227	61.555	0.000	
		71.300	3707.452	61.603	0.000	
		71.400	3620.707	61.651	0.000	
		71.500	3598.240	61.699	0.000	
		71.600	3601.172	61.747	0.000	
		71.700	3609.712	61.796	0.000	
		71.800	3597.110	61.843	0.000	
		71.900	3607.584	61.891	0.000	
		72.000	3639.821	61.939	0.000	
		72.100	3620.395	61.987	0.000	
		72.200	3659.282	62.034	0.000	
		72.300	3670.780	62.082	0.000	
		72.400	3678.012	62.130	0.000	
		72.500	3726.140	62.178	0.000	
		72.600	3767.038	62.226	0.000	
		72.700	3812.544	62.273	0.000	
		72.800	3902.722	62.320	0.000	
		72.900	4026.870	62.367	0.000	
		73.000	4054.584	62.415	0.000	
		73.100	4024.996	62.463	0.000	
		73.200	4023.105	62.511	0.000	
		73.300	4018.953	62.558	0.000	
		73.400	4007.434	62.606	0.000	
		73.500	3991.694	62.654	0.000	
		73.600	4033.792	62.701	0.000	
		73.700	4077.848	62.748	0.000	
		73.800	4022.885	62.750	0.000	
		73.900	3970.072	62.750	0.000	
		74.000	3928.885	62.795	0.000	
		74.100	3853.031	62.841	0.000	
		74.200	3797.565	62.889	0.000	
		74.300	3687.668	62.937	0.000	
		74.400	3579.732	62.986	0.000	
		74.500	3617.380	63.034	0.000	
		74.600	3603.239	63.082	0.000	
		74.700	3582.505	63.129	0.000	
		74.800	3638.110	63.177	0.000	
		74.900	3622.404	63.224	0.000	
		75.000	3626.483	63.271	0.000	
		75.100	3641.892	63.319	0.000	
		75.200	3707.364	63.367	0.000	
		75.300	3737.810	63.415	0.000	
		75.400	3777.046	63.462	0.000	
		75.500	3805.098	63.510	0.000	
		75.600	3898.140	63.530	0.000	
		75.700	4019.711	63.549	0.000	
		75.800	4067.524	63.575	0.000	
		75.900	4050.587	63.601	0.000	
		76.000	4037.693	63.670	0.000	
		76.100	4034.469	63.739	0.000	
		76.200	3998.365	63.815	0.000	
		76.300	3991.702	63.890	0.000	
		76.400	4028.022	63.920	0.000	
		76.500	4052.092	63.950	0.000	
		76.600	4004.850	63.965	0.000	
		76.700	3987.335	63.980	0.000	
		76.800	3980.177	64.027	0.000	
		76.900	3945.190	64.074	0.000	
		77.000	3914.707	64.121	0.000	
		77.100	3909.027	64.169	0.000	
		77.200	3915.730	64.217	0.000	
		77.300	3947.590	64.264	0.000	
		77.400	3963.365	64.310	0.000	
		77.500	3965.041	64.356	0.000	
		77.600	3975.098	64.403	0.000	
		77.700	3981.726	64.449	0.000	
		77.800	3922.236	64.449	0.000	
		77.900	3801.818	64.450	0.000	
		78.000	3698.852	64.496	0.000	
		78.100	3585.578	64.541	0.000	
		78.200	3546.002	64.588	0.000	
		78.300	3547.156	64.635	0.000	
		78.400	3565.617	64.723	0.000	
		78.500	3609.727	64.808	0.000	
		78.600	3606.656	64.829	0.000	
		78.700	3595.279	64.851	0.000	
		78.800	3606.138	64.886	0.000	
		78.900	3647.342	64.922	0.000	
		79.000	3649.853	64.970	0.000	
		79.100	3631.551	65.019	0.000	
		79.200	3649.268	65.067	0.000	
		79.300	3682.991	65.116	0.000	
		79.400	3676.389	65.164	0.000	
		79.500	3703.150	65.211	0.000	
		79.600	3751.220	65.231	0.000	
		79.700	3749.512	65.251	0.000	
		79.800	3717.071	65.277	0.000	
		79.900	3716.942	65.304	0.000	
		80.000	3704.489	65.352	0.000	
		80.100	3661.776	65.400	0.000	
		80.200	3661.120	65.448	0.000	
		80.300	3664.193	65.496	0.000	
		80.400	3663.598	65.544	0.000	
		80.500	3651.137	65.592	0.000	
		80.600	3655.384	65.640	0.000	
		80.700	3702.956	65.687	0.000	
		80.800	3655.208	65.719	0.000	
		80.900	3676.875	65.750	0.000	
		81.000	3688.261	65.764	0.000	
		81.100	3707.061	65.781	0.000	
		81.200	3735.476	65.829	0.000	
		81.300	3731.803	65.876	0.000	
		81.400	3736.806	65.924	0.000	
		81.500	3821.276	65.973	0.000	
		81.600	3892.052	66.020	0.000	
		81.700	4001.663	66.067	0.000	
		81.800	4043.042	66.110	0.000	
		81.900	4048.002	66.150	0.000	
		82.000	4042.103	66.153	0.000	
		82.100	4039.197	66.163	0.000	
		82.200	4018.256	66.257	0.000	
		82.300	4008.904	66.347	0.000	
		82.400	4055.427	66.396	0.000	
		82.500	4048.559	66.442	0.000	
		82.600	4038.114	66.446	0.000	
		82.700	4013.025	66.453	0.000	
		82.800	3989.162	66.495	0.000	
		82.900	4023.734	66.537	0.000	
		83.000	3972.240	66.584	0.000	
		83.100	3958.598	66.632	0.000	
		83.200	3988.520	66.679	0.000	
		83.300	4002.796	66.724	0.000	
		83.400	3968.383	66.738	0.000	
		83.500	3980.764	66.753	0.000	
		83.600	3985.320	66.784	0.000	
		83.700	3988.629	66.816	0.000	
		83.800	3975.799	66.863	0.000	
		83.900	3950.956	66.910	0.000	
		84.000	3935.354	66.959	0.000	
		84.100	3926.070	67.005	0.000	
		84.200	3916.356	67.028	0.000	
		84.300	3924.894	67.052	0.000	
		84.400	3940.485	67.074	0.000	
		84.500	3938.261	67.098	0.000	
		84.600	3940.041	67.145	0.000	
		84.700	3965.398	67.193	0.000	
		84.800	4084.354	67.239	0.000	
		84.900	4021.731	67.286	0.000	
		85.000	3998.382	67.335	0.000	
		85.100	4035.939	67.383	0.000	
		85.200	3942.308	67.430	0.000	
		85.300	3862.921	67.476	0.000	
		85.400	3795.861	67.515	0.000	
		85.500	3685.080	67.550	0.000	
		85.600	3695.215	67.556	0.000	
		85.700	3974.450	67.568	0.000	
		85.800	4201.079	67.615	0.000	
		85.900	4024.016	67.663	0.000	
		86.000	3965.120	67.711	0.000	
		86.100	3985.354	67.758	0.000	
		86.200	4012.435	67.806	0.000	
		86.300	4013.249	67.848	0.000	
		86.400	3994.619	67.849	0.000	
		86.500	3995.330	67.856	0.000	
		86.600	4014.771	67.900	0.000	
		86.700	4027.846	67.945	0.000	
		86.800	4008.801	67.992	0.000	
		86.900	3962.071	68.038	0.000	
		87.000	3957.016	68.086	0.000	
		87.100	3970.882	68.129	0.000	
		87.200	3952.344	68.140	0.000	
		87.300	3942.918	68.155	0.000	
		87.400	3945.465	68.188	0.000	
		87.500	3965.924	68.223	0.000	
		87.600	3998.569	68.271	0.000	
		87.700	3982.923	68.319	0.000	
		87.800	3946.464	68.367	0.000	
		87.900	3965.043	68.415	0.000	
		88.000	3951.138	68.464	0.000	
		88.100	3918.728	68.508	0.000	
		88.200	3908.739	68.531	0.000	
		88.300	3918.814	68.553	0.000	
		88.400	3917.086	68.575	0.000	
		88.500	3903.736	68.601	0.000	
		88.600	3866.806	68.648	0.000	
		88.700	3808.833	68.696	0.000	
		88.800	3756.185	68.744	0.000	
		88.900	3698.525	68.791	0.000	
		89.000	3649.627	68.839	0.000	
		89.100	3630.341	68.884	0.000	
		89.200	3593.970	68.920	0.000	
		89.300	3585.728	68.951	0.000	
		89.400	3606.237	68.961	0.000	
		89.500	3633.421	68.976	0.000	
		89.600	3635.290	69.023	0.000	
		89.700	3678.826	69.070	0.000	
		89.800	3692.628	69.118	0.000	
		89.900	3735.837	69.165	0.000	
		90.000	3731.496	69.214	0.000	
		90.100	3733.667	69.262	0.000	
		90.200	3711.260	69.310	0.000	
		90.300	3700.539	69.349	0.000	
		90.400	3901.293	69.349	0.000	
		90.500	4252.259	69.358	0.000	
		90.600	4451.552	69.400	0.000	
		90.700	4460.967	69.443	0.000	
		90.800	4487.044	69.490	0.000	
		90.900	4505.539	69.537	0.000	
		91.000	4521.251	69.582	0.000	
		91.100	4614.807	69.622	0.000	
		91.200	4653.920	69.637	0.000	
		91.300	4572.728	69.655	0.000	
		91.400	4564.089	69.684	0.000	
		91.500	4548.185	69.716	0.000	
		91.600	4456.763	69.763	0.000	
		91.700	4417.349	69.806	0.000	
		91.800	4412.148	69.831	0.000	
		91.900	4428.198	69.853	0.000	
		92.000	4424.018	69.869	0.000	
		92.100	4439.880	69.891	0.000	
		92.200	4438.372	69.939	0.000	
		92.300	4463.722	69.986	0.000	
		92.400	4498.591	70.033	0.000	
		92.500	4525.194	70.080	0.000	
		92.600	4577.030	70.128	0.000	
		92.700	4671.040	70.174	0.000	
		92.800	4787.967	70.216	0.000	
		92.900	4832.053	70.250	0.000	
		93.000	5023.837	70.254	0.000	
		93.100	5551.376	70.268	0.000	
		93.200	6772.518	70.318	0.022	
		93.300	8774.649	70.377	0.122	
		93.400	10564.549	70.468	0.223	
		93.500	11716.253	70.549	0.392	
		93.600	12162.122	70.599	0.815	
		93.700	12160.803	70.648	1.361	
		93.800	11639.034	70.695	2.015	
		93.900	10715.056	70.741	2.561	
		94.000	10087.854	70.787	3.261	
		94.100	9870.912	70.834	3.915	
		94.200	9794.771	70.881	4.396	
		94.300	9639.882	70.921	4.796	
		94.400	9243.256	70.937	5.220	
		94.500	8661.001	70.956	5.696	
		94.600	8137.098	70.984	6.072	
		94.700	7696.210	71.016	6.372	
		94.800	7279.890	71.063	6.672	
		94.900	7054.411	71.110	6.975	
		95.000	6980.160	71.157	7.250	
		95.100	7001.382	71.204	7.450	
		95.200	7034.962	71.250	7.675	
		95.300	7106.526	71.297	7.950	
		95.400	7202.697	71.344	8.150	
		95.500	7240.844	71.391	8.350	
		95.600	7306.498	71.438	8.550	
		95.700	7345.888	71.485	8.778	
		95.800	7371.136	71.531	9.052	
		95.900	7418.579	71.578	9.252	
		96.000	7451.924	71.624	9.452	
		96.100	7455.840	71.670	9.652	
		96.200	7452.350	71.716	9.826	
		96.300	7419.976	71.763	9.952	
		96.400	7366.101	71.812	10.154	
		96.500	7329.848	71.859	10.354	
		96.600	7312.296	71.906	10.527	
		96.700	7319.983	71.953	10.654	
		96.800	7307.334	72.000	10.854	
		96.900	7269.014	72.047	11.027	
		97.000	7268.087	72.093	11.154	
		97.100	7301.385	72.140	11.354	
		97.200	7322.416	72.187	11.528	
		97.300	7324.806	72.233	11.628	
		97.400	7286.991	72.281	11.756	
		97.500	7269.222	72.336	11.956	
		97.600	7268.646	72.412	12.128	
		97.700	7272.953	72.486	12.228	
		97.800	7267.133	72.553	12.328	
		97.900	7247.104	72.615	12.428	
		98.000	7235.125	72.662	12.529	
		98.100	7256.850	72.715	12.687	
		98.200	7284.511	72.782	12.958	
		98.300	7272.029	72.851	13.274	
		98.400	7129.532	72.928	13.903	
		98.500	6423.237	72.995	14.603	
		98.600	4946.554	73.040	15.303	
		98.700	3704.413	73.086	16.100	
		98.800	3451.445	73.132	16.980	
		98.900	3794.976	73.179	17.550	
		99.000	4035.501	73.226	18.020	
		99.100	3752.875	73.273	18.390	
		99.200	3925.339	73.320	18.645	
		99.300	4012.828	73.367	18.795	
		99.400	4078.740	73.413	19.050	
		99.500	4116.141	73.474	19.493	
		99.600	4186.205	73.565	19.793	
		99.700	4217.528	73.644	20.062	
		99.800	4186.532	73.697	20.262	
		99.900	4245.876	73.748	20.431	
		100.000	4327.821	73.795	20.531	
		100.100	4385.005	73.843	20.631	
		100.200	4342.041	73.890	20.715	
		100.300	4307.333	73.938	20.766	
		100.400	4340.051	73.985	20.832	
		100.500	4435.600	74.031	20.916	
		100.600	4433.579	74.078	20.966	
		100.700	4346.928	74.124	21.016	
		100.800	4335.692	74.171	21.066	
		100.900	4317.236	74.218	21.095	
		101.000	4355.432	74.264	21.081	
		101.100	4459.100	74.310	21.067	
		101.200	4499.614	74.355	21.052	
		101.300	4500.781	74.400	21.038	
		101.400	4493.171	74.445	21.024	
		101.500	4404.956	74.490	21.010	
		101.600	4375.286	74.535	21.033	
		101.700	4319.828	74.580	21.117	
		101.800	4341.783	74.627	21.167	
		101.900	4357.579	74.674	21.268	
		102.000	4430.790	74.722	21.434	
		102.100	4525.225	74.768	21.602	
		102.200	4569.663	74.814	21.936	
		102.300	4662.916	74.845	22.302	
		102.400	4786.372	74.848	22.636	
		102.500	4856.095	74.864	23.005	
		102.600	4894.993	74.904	23.270	
		102.700	4822.709	74.933	23.505	
		102.800	4876.307	74.943	23.683	
		102.900	4952.202	74.962	23.633	
		103.000	4956.468	74.996	23.565	
		103.100	4821.183	75.034	23.483	
		103.200	4828.286	75.081	23.433	
		103.300	4863.249	75.118	23.382	
		103.400	4877.390	75.137	23.332	
		103.500	4819.228	75.158	23.336	
		103.600	4783.338	75.182	23.472	
		103.700	4951.843	75.206	23.744	
		103.800	5098.694	75.233	24.036	
		103.900	5025.410	75.256	24.172	
		104.000	4899.311	75.274	24.336	
		104.100	4872.845	75.298	24.363	
		104.200	4958.372	75.330	24.263	
		104.300	5074.093	75.350	24.163	
		104.400	5087.476	75.350	23.952	
		104.500	4951.007	75.353	23.589	
		104.600	4759.324	75.363	23.363	
		104.700	4675.465	75.384	23.263	
		104.800	4798.287	75.425	23.162	
		104.900	4935.617	75.450	23.062	
		105.000	4825.344	75.450	22.981	
		105.100	4618.916	75.450	22.931	
		105.200	4668.297	75.450	22.862	
		105.300	4738.263	75.467	22.762	
		105.400	4698.316	75.514	22.662	
		105.500	4590.810	75.544	22.562	
		105.600	4576.235	75.548	22.461	
		105.700	4597.674	75.550	22.361	
		105.800	4598.143	75.550	22.222	
		105.900	4543.001	75.565	22.022	
		106.000	4510.944	75.604	21.861	
		106.100	4458.210	75.632	21.761	
		106.200	4393.531	75.643	21.681	
		106.300	4403.290	75.649	21.631	
		106.400	4461.835	75.649	21.560	
		106.500	4437.121	75.660	21.513	
		106.600	4402.606	75.688	21.547	
		106.700	4414.728	75.713	21.580	
		106.800	4413.739	75.736	21.620	
		106.900	4466.735	75.749	21.670	
		107.000	4382.534	75.749	21.720	
		107.100	4305.855	75.756	21.771	
		107.200	4345.411	75.772	21.841	
		107.300	4365.694	75.795	21.941	
		107.400	4421.205	75.829	21.979	
		107.500	4473.277	75.849	21.930	
		107.600	4481.606	75.849	21.941	
		107.700	4478.641	75.849	22.014	
		107.800	4464.042	75.849	22.047	
		107.900	4469.804	75.852	22.081	
		108.000	4460.559	75.859	22.142	
		108.100	4440.572	75.881	22.221	
		108.200	4458.874	75.924	22.271	
		108.300	4503.205	75.950	22.321	
		108.400	4556.923	75.950	22.371	
		108.500	4591.274	75.950	22.442	
		108.600	4568.144	75.950	22.457	
		108.700	4505.743	75.950	22.383	
		108.800	4526.662	75.950	22.343	
		108.900	4609.019	75.966	22.303	
		109.000	4602.273	76.004	22.263	
		109.100	4553.994	76.030	22.223	
		109.200	4490.990	76.043	22.114	
		109.300	4283.427	76.050	21.957	
		109.400	4194.739	76.050	21.812	
		109.500	4498.181	76.050	21.656	
		109.600	4801.046	76.050	21.644	
		109.700	4874.673	76.050	21.832	
		109.800	4932.750	76.050	22.176	
		109.900	5210.498	76.059	22.708	
		110.000	5362.480	76.079	23.408	
		110.100	5423.687	76.103	23.976	
		110.200	5377.397	76.133	24.515	
		110.300	5136.088	76.150	24.990	
		110.400	4884.893	76.150	25.055	
		110.500	4833.669	76.150	24.955	
		110.600	4965.010	76.150	24.855	
		110.700	5093.515	76.152	24.620	
		110.800	5110.965	76.158	24.310	
		110.900	4906.501	76.182	24.108	
		111.000	4734.764	76.226	23.908	
		111.100	4815.548	76.250	23.777	
		111.200	4898.310	76.250	23.727	
		111.300	4873.217	76.250	23.654	
		111.400	4733.917	76.250	23.508	
		111.500	4657.715	76.250	23.262	
		111.600	4668.383	76.250	23.008	
		111.700	4631.733	76.268	22.806	
		111.800	4628.879	76.306	22.606	
		111.900	4725.274	76.331	22.453	
		112.000	4760.452	76.343	22.424	
		112.100	4717.817	76.363	22.474	
		112.200	4682.630	76.392	22.594	
		112.300	4746.483	76.418	22.794	
		112.400	4889.236	76.439	23.044	
		112.500	5008.269	76.450	23.392	
		112.600	5108.777	76.450	23.840	
		112.700	5406.812	76.458	24.484	
		112.800	5758.857	76.476	25.092	
		112.900	5598.320	76.500	25.540	
		113.000	5354.984	76.533	26.040	
		113.100	5447.842	76.555	26.396	
		113.200	5532.415	76.566	26.549	
		113.300	5485.722	76.590	26.527	
		113.400	5322.157	76.630	26.377	
		113.500	5258.570	76.650	26.104	
		113.600	5316.320	76.650	25.802	
		113.700	5380.000	76.650	25.553	
		113.800	5410.046	76.651	25.302	
		113.900	5404.989	76.675	25.053	
		114.000	5283.300	76.722	24.800	
		114.100	5069.789	76.747	24.550	
		114.200	4931.065	76.749	24.250	
		114.300	4912.691	76.771	24.050	
		114.400	5014.127	76.813	24.025	
		114.500	5258.370	76.838	24.075	
		114.600	5388.712	76.846	24.125	
		114.700	5207.100	76.850	24.176	
		114.800	5040.742	76.850	24.226	
		114.900	5056.471	76.865	24.276	
		115.000	5105.367	76.894	24.402	
		115.100	5223.729	76.919	24.602	
		115.200	5499.874	76.940	24.828	
		115.300	5544.950	76.950	25.078	
		115.400	5561.182	76.950	25.608	
		115.500	5879.979	76.950	26.468	
		115.600	6278.307	76.950	27.316	
		115.700	6565.012	76.957	28.428	
		115.800	6702.261	76.971	29.516	
		115.900	6893.830	76.996	30.368	
		116.000	7074.920	77.032	31.268	
		116.100	7180.852	77.052	32.116	
		116.200	7287.352	77.058	32.812	
		116.300	7372.632	77.084	33.471	
		116.400	7395.058	77.129	34.118	
		116.500	7398.978	77.149	34.718	
		116.600	7485.108	77.149	35.371	
		116.700	7609.752	77.149	35.965	
		116.800	7630.242	77.149	36.412	
		116.900	7721.320	77.172	36.812	
		117.000	7794.814	77.214	37.162	
		117.100	7818.626	77.238	37.381	
		117.200	7885.230	77.246	37.531	
		117.300	7902.853	77.249	37.492	
		117.400	7914.909	77.249	37.364	
		117.500	7927.378	77.266	37.297	
		117.600	7945.916	77.296	37.231	
		117.700	7952.845	77.335	37.281	
		117.800	7889.382	77.382	37.432	
		117.900	7844.757	77.416	37.555	
		118.000	7877.229	77.439	37.655	
		118.100	7916.837	77.460	37.755	
		118.200	7982.094	77.479	37.717	
		118.300	8073.784	77.504	37.568	
		118.400	8218.353	77.536	37.445	
		118.500	8359.064	77.556	37.316	
		118.600	8377.546	77.569	37.166	
		118.700	8366.337	77.595	37.072	
		118.800	8348.078	77.633	37.022	
		118.900	8389.150	77.653	36.944	
		119.000	8399.483	77.659	37.012	
		119.100	8321.111	77.687	37.436	
		119.200	8178.962	77.730	37.924	
		119.300	8056.577	77.750	38.271	
		119.400	8113.725	77.750	38.571	
		119.500	8157.843	77.775	38.643	
		119.600	8077.356	77.819	38.258	
		119.700	7905.917	77.865	37.829	
		119.800	7730.817	77.912	37.301	
		119.900	7610.563	77.937	36.601	
		120.000	7542.719	77.946	35.958	
		120.100	7515.941	77.969	35.468	
		120.200	7492.830	78.001	35.068	
		120.300	7572.101	78.025	35.074	
		120.400	7731.872	78.042	35.374	
		120.500	7756.780	78.065	35.674	
		120.600	7720.869	78.090	36.090	
		120.700	7816.567	78.115	36.648	
		120.800	8005.702	78.140	36.989	
		120.900	8300.476	78.162	37.139	
		121.000	8450.202	78.182	37.259	
		121.100	8442.511	78.208	37.182	
		121.200	8501.604	78.238	37.041	
		121.300	8546.894	78.257	37.118	
		121.400	8523.816	78.270	37.318	
		121.500	8538.592	78.297	37.577	
		121.600	8509.844	78.335	38.180	
		121.700	8489.814	78.353	38.920	
		121.800	8370.583	78.357	39.500	
		121.900	8346.127	78.386	39.880	
		122.000	8485.430	78.431	40.180	
		122.100	8644.677	78.449	40.240	
		122.200	8811.832	78.449	40.140	
		122.300	8928.785	78.475	40.040	
		122.400	8963.046	78.517	40.183	
		122.500	8955.976	78.539	40.483	
		122.600	8898.888	78.546	40.539	
		122.700	8859.871	78.572	40.439	
		122.800	8873.236	78.608	40.583	
		122.900	8874.205	78.631	40.761	
		123.000	8822.393	78.644	40.861	
		123.100	8711.582	78.649	41.024	
		123.200	8779.227	78.649	41.007	
		123.300	8976.134	78.667	40.857	
		123.400	9112.266	78.696	40.490	
		123.500	9120.737	78.737	40.114	
		123.600	9080.454	78.784	40.062	
		123.700	8990.245	78.817	40.131	
		123.800	8934.287	78.841	40.181	
		123.900	8874.549	78.862	40.263	
		124.000	8853.519	78.882	40.363	
		124.100	8809.027	78.909	40.463	
		124.200	8684.841	78.939	40.563	
		124.300	8665.433	78.957	40.663	
		124.400	8808.707	78.970	40.826	
		124.500	8876.504	78.998	40.931	
		124.600	8975.566	79.036	40.982	
		124.700	9165.313	79.053	41.032	
		124.800	9238.597	79.059	41.082	
		124.900	9266.432	79.089	41.132	
		125.000	9358.859	79.134	41.182	
		125.100	9391.207	79.150	41.232	
		125.200	9394.740	79.150	41.282	
		125.300	9368.444	79.177	41.428	
		125.400	9239.875	79.221	41.695	
		125.500	9249.234	79.267	41.865	
		125.600	9373.141	79.314	41.640	
		125.700	9374.870	79.337	41.630	
		125.800	9267.953	79.347	41.245	
		125.900	9211.411	79.371	40.545	
		126.000	9106.181	79.404	40.040	
		126.100	8962.203	79.426	39.770	
		126.200	8864.520	79.444	39.502	
		126.300	8791.867	79.466	39.730	
		126.400	8712.640	79.490	40.098	
		126.500	8643.018	79.515	40.398	
		126.600	8686.360	79.541	40.764	
		126.700	8869.462	79.560	41.230	
		126.800	9157.680	79.576	41.334	
		126.900	9382.461	79.613	41.501	
		127.000	9440.630	79.660	41.801	
		127.100	9450.773	79.700	41.833	
		127.200	9461.717	79.738	41.867	
		127.300	9383.988	79.753	42.101	
		127.400	9261.985	79.758	42.267	
		127.500	9190.677	79.790	42.367	
		127.600	9031.800	79.835	42.601	
		127.700	8971.105	79.849	42.530	
		127.800	9007.854	79.849	42.280	
		127.900	8779.450	79.849	41.860	
		128.000	8395.985	79.849	41.156	
		128.100	8150.053	79.878	40.084	
		128.200	7923.910	79.920	39.156	
		128.300	7588.919	79.939	37.948	
		128.400	7175.604	79.947	36.258	
		128.500	6847.644	79.973	34.665	
		128.600	6812.293	80.007	33.855	
		128.700	7157.792	80.028	33.355	
		128.800	7592.706	80.044	33.407	
		128.900	7527.413	80.068	33.845	
		129.000	7346.645	80.096	34.207	
		129.100	7602.551	80.120	34.507	
		129.200	7829.831	80.143	34.810	
		129.300	7531.303	80.164	34.550	
		129.400	7137.204	80.184	33.980	
		129.500	7001.468	80.211	33.520	
		129.600	7126.072	80.241	33.575	
		129.700	8057.634	80.250	33.825	
		129.800	9349.511	80.250	34.250	
		129.900	10853.223	80.254	34.890	
		130.000	11811.108	80.259	35.455	
		130.100	11688.781	80.293	35.707	
		130.200	10969.118	80.337	35.857	
		130.300	10292.949	80.350	35.048	
		130.400	9821.353	80.350	33.209	
		130.500	9303.744	80.383	30.967	
		130.600	8648.786	80.430	28.738	
		130.700	7977.061	80.446	26.300	
		130.800	7272.154	80.449	23.656	
		130.900	6557.791	80.478	20.020	
		131.000	6188.553	80.517	16.092	
		131.100	7003.046	80.536	12.696	
		131.200	9128.400	80.547	7.624	
		131.300	11180.446	80.550	5.424	
		131.400	11356.353	80.550	5.776	
		131.500	11276.224	80.572	7.314	
		131.600	11670.669	80.602	9.552	
		131.700	12153.439	80.624	12.244	
		131.800	12404.074	80.644	15.044	
		131.900	12507.828	80.650	17.990	
		132.000	12567.164	80.650	20.990	
		132.100	12525.925	80.666	23.917	
		132.200	12469.260	80.688	26.890	
		132.300	12354.076	80.715	29.846	
		132.400	12199.837	80.743	32.746	
		132.500	12044.024	80.750	35.572	
		132.600	11952.379	80.750	38.520	
		132.700	11862.074	80.750	41.594	
		132.800	11807.921	80.750	44.398	
		132.900	11727.356	80.750	47.098	
		133.000	11673.591	80.750	49.675	
		133.100	10962.299	80.750	51.950	
		133.200	9441.879	80.750	53.925	
		133.300	8803.816	80.750	55.600	
		133.400	8839.652	80.750	56.975	
		133.500	8991.538	80.750	58.200	
		133.600	9176.789	80.750	59.325	
		133.700	9297.783	80.750	60.350	
		133.800	9441.410	80.750	61.056	
		133.900	9413.506	80.750	61.504	
		134.000	9328.747	80.750	61.752	
		134.100	9212.979	80.750	61.724	
		134.200	9051.163	80.750	61.320	
		134.300	9028.047	80.750	60.896	
		134.400	8989.449	80.750	60.192	
		134.500	8889.702	80.750	59.307	
		134.600	8798.733	80.750	58.638	
		134.700	8700.275	80.727	57.884	
		134.800	8597.103	80.697	57.238	
		134.900	8529.807	80.675	56.638	
		135.000	8467.824	80.654	56.115	
		135.100	8395.938	80.650	55.615	
		135.200	8361.461	80.650	55.346	
		135.300	8382.253	80.650	54.754	
		135.400	8422.102	80.650	54.288	
		135.500	8333.546	80.650	53.810	
		135.600	8173.556	80.650	53.232	
		135.700	8183.476	80.650	52.866	
		135.800	8075.278	80.650	52.722	
		135.900	8068.659	80.650	52.466	
		136.000	7941.519	80.650	52.166	
		136.100	7997.176	80.650	51.784	
		136.200	8138.216	80.650	51.384	
		136.300	8194.043	80.650	50.747	
		136.400	8211.882	80.650	50.442	
		136.500	8172.926	80.615	50.242	
		136.600	8165.683	80.571	49.884	
		136.700	8159.591	80.557	49.721	
		136.800	8119.872	80.551	50.100	
		136.900	8096.489	80.550	50.600	
		137.000	8039.023	80.550	51.180	
		137.100	7967.932	80.550	51.860	
		137.200	8082.133	80.550	52.480	
		137.300	8306.669	80.526	52.760	
		137.400	8392.074	80.496	53.120	
		137.500	8496.133	80.474	53.440	
		137.600	8595.713	80.453	53.662	
		137.700	8526.478	80.450	54.024	
		137.800	8545.228	80.450	54.424	
		137.900	8530.045	80.434	54.743	
		138.000	8427.543	80.415	54.881	
		138.100	8521.296	80.386	54.981	
		138.200	8651.840	80.356	54.838	
		138.300	8669.265	80.340	54.395	
		138.400	8640.710	80.327	53.972	
		138.500	8596.551	80.286	53.654	
		138.600	8537.403	80.239	53.190	
		138.700	8494.542	80.198	52.772	
		138.800	8421.494	80.157	52.659	
		138.900	8346.191	80.147	52.609	
		139.000	8162.436	80.144	52.641	
		139.100	7999.454	80.104	52.692	
		139.200	8202.944	80.058	52.783	
		139.300	8451.274	80.050	52.468	
		139.400	8412.610	80.050	52.317	
		139.500	8369.487	80.015	52.494	
		139.600	8312.992	79.973	52.727	
		139.700	8310.927	79.928	52.960	
		139.800	8224.349	79.883	53.083	
		139.900	8055.708	79.864	52.932	
		140.000	7869.796	79.851	52.732	
		140.100	7529.347	79.823	51.608	
		140.200	7017.092	79.792	49.720	
		140.300	6456.732	79.772	47.720	
		140.400	5842.018	79.753	44.880	
		140.500	5249.301	79.728	41.964	
		140.600	4816.208	79.701	39.715	
		140.700	4722.734	79.677	37.020	
		140.800	5054.928	79.653	35.240	
		140.900	5262.013	79.632	34.320	
		141.000	5100.972	79.611	33.690	
		141.100	5112.899	79.583	33.005	
		141.200	5044.107	79.554	32.985	
		141.300	4872.557	79.537	32.490	
		141.400	4819.907	79.522	31.884	
		141.500	5371.447	79.490	31.284	
		141.600	6147.389	79.455	30.684	
		141.700	6544.900	79.441	29.912	
		141.800	6195.744	79.431	29.456	
		141.900	5605.696	79.395	28.970	
		142.000	5597.568	79.355	28.642	
		142.100	6235.979	79.347	28.514	
		142.200	6509.679	79.343	28.674	
		142.300	5949.764	79.303	28.874	
		142.400	5788.035	79.258	28.987	
		142.500	6210.901	79.251	29.174	
		142.600	6818.520	79.250	29.548	
		142.700	6259.438	79.250	29.948	
		142.800	6413.009	79.250	30.609	
		142.900	6664.522	79.218	31.404	
		143.000	6885.319	79.181	32.292	
		143.100	7156.163	79.165	33.280	
		143.200	7366.928	79.151	34.720	
		143.300	7683.497	79.123	35.516	
		143.400	7633.156	79.093	36.216	
		143.500	7564.119	79.048	36.652	
		143.600	7199.326	79.001	36.524	
		143.700	7162.686	78.975	35.877	
		143.800	7128.025	78.952	35.177	
		143.900	6926.360	78.930	34.121	
		144.000	6749.546	78.908	32.932	
		144.100	6557.226	78.864	31.999	
		144.200	6387.743	78.818	31.010	
		144.300	6182.385	78.770	30.099	
		144.400	6031.307	78.723	29.199	
		144.500	5885.708	78.687	28.470	
		144.600	5716.361	78.653	27.860	
		144.700	5635.319	78.641	27.260	
		144.800	5702.886	78.632	27.020	
		144.900	6008.464	78.590	27.090	
		145.000	5979.021	78.544	27.280	
		145.100	5510.006	78.499	27.480	
		145.200	5641.128	78.454	28.319	
		145.300	6053.827	78.450	28.491	
		145.400	6487.511	78.449	28.773	
		145.500	5963.898	78.410	28.982	
		145.600	5535.112	78.367	28.727	
		145.700	5763.005	78.320	28.427	
		145.800	5743.822	78.273	27.945	
		145.900	5493.704	78.227	27.263	
		146.000	5408.514	78.180	26.740	
		146.100	5429.910	78.164	26.332	
		146.200	5553.233	78.151	25.840	
		146.300	5478.935	78.123	25.708	
		146.400	5277.996	78.094	25.516	
		146.500	5193.744	78.073	25.546	
		146.600	5257.477	78.052	25.596	
		146.700	5311.096	78.029	25.647	
		146.800	5255.316	78.007	25.697	
		146.900	5154.914	77.961	25.514	
		147.000	5104.322	77.914	25.314	
		147.100	5070.878	77.883	25.207	
		147.200	5027.435	77.852	24.921	
		147.300	5083.096	77.838	24.807	
		147.400	5237.217	77.825	24.707	
		147.500	5391.106	77.789	24.512	
		147.600	4953.558	77.752	24.312	
		147.700	4851.919	77.744	24.394	
		147.800	4818.565	77.738	24.118	
		147.900	4865.016	77.696	23.912	
		148.000	4749.515	77.652	23.618	
		148.100	4696.695	77.606	23.318	
		148.200	4610.780	77.560	22.736	
		148.300	4677.549	77.554	22.763	
		148.400	4915.108	77.550	22.830	
		148.500	5001.932	77.509	22.897	
		148.600	5161.221	77.467	23.565	
		148.700	5441.956	77.457	24.170	
		148.800	5738.250	77.450	25.435	
		148.900	5929.077	77.417	26.830	
		149.000	6303.099	77.383	28.436	
		149.100	6597.230	77.366	29.940	
		149.200	6800.929	77.350	31.632	
		149.300	7115.924	77.324	33.140	
		149.400	7422.709	77.296	34.640	
		149.500	7765.265	77.250	36.140	
		149.600	8088.082	77.203	37.448	
		149.700	8347.914	77.156	38.844	
		149.800	8560.828	77.110	39.967	
		149.900	8716.562	77.063	41.164	
		150.000	8932.979	77.017	42.170	
		150.100	8412.542	76.984	42.879	
		150.200	6860.721	76.951	43.385	
		150.300	6730.889	76.943	43.885	
		150.400	6711.457	76.937	44.191	
		150.500	6791.176	76.894	44.494	
		150.600	6804.819	76.851	44.892	
		150.700	6891.625	76.850	45.194	
		150.800	7019.336	76.850	45.690	
		150.900	7048.864	76.805	46.190	
		151.000	7118.495	76.759	46.788	
		151.100	7246.060	76.711	47.388	
		151.200	7388.689	76.664	47.988	
		151.300	7472.822	76.617	48.693	
		151.400	7587.256	76.571	49.393	
		151.500	7707.762	76.560	50.192	
		151.600	7814.496	76.550	50.893	
		151.700	7972.152	76.518	51.791	
		151.800	8142.877	76.485	52.493	
		151.900	8194.797	76.467	53.292	
		152.000	8256.365	76.450	53.993	
		152.100	8336.499	76.426	54.500	
		152.200	8349.179	76.401	55.000	
		152.300	8348.533	76.376	54.900	
		152.400	8235.492	76.350	54.800	
		152.500	7877.455	76.333	54.400	
		152.600	7816.421	76.317	53.600	
		152.700	7851.451	76.283	52.500	
		152.800	7690.898	76.250	51.589	
		152.900	7517.568	76.240	50.488	
		153.000	7375.475	76.230	49.289	
		153.100	7229.660	76.190	48.190	
		153.200	7094.212	76.150	47.189	
		153.300	6931.679	76.147	46.090	
		153.400	6742.414	76.143	45.091	
		153.500	6624.210	76.097	44.192	
		153.600	6547.952	76.051	43.384	
		153.700	6501.953	76.050	42.584	
		153.800	6507.614	76.050	41.782	
		153.900	6487.993	76.050	40.884	
		154.000	6599.393	76.049	40.092	
		154.100	6578.078	76.010	39.710	
		154.200	6567.633	75.972	40.198	
		154.300	6150.419	75.961	40.098	
		154.400	5731.957	75.949	39.997	
		154.500	5875.142	75.914	39.873	
		154.600	5852.338	75.880	38.973	
		154.700	5575.568	75.865	38.055	
		154.800	5425.427	75.849	36.561	
		154.900	5289.440	75.849	35.258	
		155.000	5079.595	75.849	33.861	
		155.100	4899.964	75.823	32.564	
		155.200	4730.083	75.796	31.660	
		155.300	4574.396	75.749	30.668	
		155.400	4446.362	75.703	29.876	
		155.500	4320.606	75.676	29.280	
		155.600	4807.940	75.649	28.788	
		155.700	4561.785	75.634	28.492	
		155.800	4465.007	75.617	28.296	
		155.900	4524.427	75.570	28.198	
		156.000	4340.058	75.524	28.165	
		156.100	4256.695	75.486	28.132	
		156.200	4151.572	75.450	28.105	
		156.300	4173.837	75.448	28.210	
		156.400	4299.150	75.444	28.405	
		156.500	4394.042	75.398	28.505	
		156.600	4443.873	75.352	28.588	
		156.700	4449.010	75.304	28.406	
		156.800	4481.555	75.256	28.506	
		156.900	4574.524	75.208	28.612	
		157.000	4582.945	75.163	28.824	
		157.100	4504.030	75.156	29.212	
		157.200	4480.141	75.148	29.436	
		157.300	4583.903	75.109	30.024	
		157.400	4594.648	75.068	30.428	
		157.500	4712.932	74.985	30.842	
		157.600	4748.944	74.903	31.414	
		157.700	4817.136	74.842	31.642	
		157.800	4917.191	74.783	32.249	
		157.900	5085.322	74.766	32.949	
		158.000	5223.029	74.748	33.670	
		158.100	5334.153	74.722	34.677	
		158.200	5593.722	74.694	35.796	
		158.300	5813.418	74.647	37.020	
		158.400	5991.259	74.601	38.520	
		158.500	6269.453	74.554	40.012	
		158.600	6462.243	74.506	41.428	
		158.700	6628.100	74.460	42.996	
		158.800	6820.477	74.413	44.196	
		158.900	6984.527	74.366	45.390	
		159.000	7138.687	74.320	46.390	
		159.100	7274.878	74.283	47.381	
		159.200	7365.938	74.249	48.263	
		159.300	7572.810	74.240	48.954	
		159.400	7694.035	74.228	49.527	
		159.500	7509.805	74.180	49.791	
		159.600	7545.871	74.133	49.691	
		159.700	7268.792	74.089	49.560	
		159.800	6919.352	74.050	49.110	
		159.900	7210.682	74.048	48.220	
		160.000	7078.621	74.042	47.430	
		160.100	7003.402	73.995	46.700	
		160.200	6894.595	73.949	45.740	
		160.300	6812.607	73.902	45.140	
		160.400	6722.732	73.860	44.550	
		160.500	6712.363	73.855	44.078	
		160.600	6846.662	73.846	43.889	
		160.700	6821.687	73.809	43.811	
		160.800	6779.146	73.775	43.911	
		160.900	6765.850	73.762	44.022	
		161.000	6750.224	73.750	44.211	
		161.100	6743.121	73.750	44.322	
		161.200	6744.641	73.747	44.488	
		161.300	6739.594	73.721	44.388	
		161.400	6681.689	73.696	44.264	
		161.500	6578.852	73.671	43.952	
		161.600	6404.407	73.650	43.528	
		161.700	6253.231	73.650	42.928	
		161.800	6326.593	73.648	42.304	
		161.900	6204.413	73.631	41.492	
		162.000	5958.193	73.612	40.596	
		162.100	5883.284	73.579	39.783	
		162.200	5412.797	73.550	38.870	
		162.300	4989.684	73.550	37.857	
		162.400	5026.145	73.548	36.757	
		162.500	5820.224	73.539	35.683	
		162.600	6661.789	73.525	34.757	
		162.700	7131.746	73.484	33.660	
		162.800	6905.022	73.450	32.674	
		162.900	6502.366	73.450	31.760	
		163.000	6073.134	73.449	30.774	
		163.100	6128.740	73.446	29.902	
		163.200	6069.786	73.437	29.188	
		163.300	5839.000	73.390	28.360	
		163.400	5678.713	73.350	27.388	
		163.500	5546.799	73.350	26.610	
		163.600	5445.298	73.350	26.040	
		163.700	5421.282	73.350	25.655	
		163.800	5465.929	73.350	25.355	
		163.900	5484.572	73.350	25.070	
		164.000	5332.600	73.350	24.870	
		164.100	5105.549	73.350	24.685	
		164.200	5043.989	73.350	24.585	
		164.300	5046.041	73.350	24.484	
		164.400	5065.521	73.350	24.352	
		164.500	5018.817	73.350	24.068	
		164.600	4976.781	73.350	23.836	
		164.700	4925.796	73.350	23.452	
		164.800	4823.208	73.354	23.152	
		164.900	4771.707	73.380	22.852	
		165.000	4718.149	73.407	22.549	
		165.100	4641.808	73.430	22.232	
		165.200	4576.334	73.450	21.849	
		165.300	4484.246	73.450	21.532	
		165.400	4363.457	73.450	21.132	
		165.500	4320.662	73.450	20.732	
		165.600	4276.797	73.450	20.332	
		165.700	4214.108	73.450	19.949	
		165.800	4137.475	73.450	19.664	
		165.900	4096.995	73.450	19.446	
		166.000	4079.810	73.452	19.146	
		166.100	4048.662	73.463	18.864	
		166.200	4002.259	73.480	18.664	
		166.300	3926.125	73.518	18.446	
		166.400	3923.899	73.550	18.146	
		166.500	3984.430	73.550	17.828	
		166.600	4048.028	73.550	17.443	
		166.700	4064.709	73.554	17.124	
		166.800	3982.014	73.566	16.705	
		166.900	3998.302	73.612	16.205	
		167.000	4019.563	73.650	15.705	
		167.100	4026.045	73.650	15.205	
		167.200	4008.403	73.658	14.705	
		167.300	3993.980	73.702	14.220	
		167.400	4001.803	73.739	13.820	
		167.500	4005.800	73.745	13.400	
		167.600	3985.642	73.750	12.920	
		167.700	3983.966	73.750	12.500	
		167.800	4001.760	73.757	12.000	
		167.900	3982.719	73.794	11.500	
		168.000	3969.266	73.834	11.000	
		168.100	3986.966	73.881	10.495	
		168.200	3997.071	73.922	9.995	
		168.300	3986.093	73.938	9.474	
		168.400	3985.569	73.956	8.895	
		168.500	3982.943	73.985	8.395	
		168.600	3961.061	74.012	7.874	
		168.700	3978.153	74.033	7.295	
		168.800	3974.278	74.055	6.790	
		168.900	3964.684	74.079	6.312	
		169.000	3969.180	74.109	5.890	
		169.100	3980.501	74.155	5.412	
		169.200	4016.967	74.198	4.990	
		169.300	4018.252	74.227	4.512	
		169.400	3982.509	74.253	4.134	
		169.500	3932.590	74.267	3.812	
		169.600	3905.963	74.286	3.408	
		169.700	3914.449	74.322	3.031	
		169.800	3922.399	74.352	2.708	
		169.900	3954.534	74.362	2.331	
		170.000	3991.889	74.380	2.031	
		170.100	3975.589	74.428	1.731	
		170.200	3936.213	74.475	1.431	
		170.300	3935.081	74.517	1.108	
		170.400	3960.670	74.550	0.728	
		170.500	3983.639	74.553	0.452	
		170.600	3970.710	74.567	0.252	
		170.700	3926.877	74.614	0.076	
		170.800	3927.393	74.662	0.000	
		170.900	3952.804	74.710	0.000	
		171.000	3956.500	74.747	0.024	
		171.100	3906.223	74.749	0.075	
		171.200	3870.226	74.770	0.000	
		171.300	3845.458	74.854	0.000	
		171.400	3802.261	74.920	0.000	
		171.500	3740.260	74.937	0.000	
		171.600	3685.190	74.959	0.000	
		171.700	3638.985	74.995	0.000	
		171.800	3616.043	75.034	0.000	
		171.900	3670.501	75.083	0.000	
		172.000	3699.320	75.131	0.000	
		172.100	3706.464	75.179	0.000	
		172.200	3765.825	75.227	0.000	
		172.300	3885.048	75.274	0.000	
		172.400	4015.570	75.315	0.000	
		172.500	4040.757	75.335	0.000	
		172.600	3988.040	75.357	0.000	
		172.700	4000.213	75.382	0.000	
		172.800	4017.637	75.413	0.000	
		172.900	4033.253	75.461	0.000	
		173.000	4034.910	75.509	0.000	
		173.100	4021.168	75.557	0.000	
		173.200	4024.538	75.604	0.000	
		173.300	4030.874	75.652	0.000	
		173.400	4010.047	75.700	0.000	
		173.500	3999.018	75.747	0.000	
		173.600	4002.001	75.795	0.000	
		173.700	3986.244	75.843	0.000	
		173.800	3969.937	75.891	0.000	
		173.900	3964.908	75.938	0.000	
		174.000	3944.913	75.985	0.000	
		174.100	3924.763	76.033	0.000	
		174.200	3924.967	76.081	0.000	
		174.300	3935.392	76.129	0.000	
		174.400	3941.362	76.178	0.000	
		174.500	3932.818	76.225	0.000	
		174.600	3920.665	76.273	0.000	
		174.700	3893.964	76.321	0.000	
		174.800	3891.906	76.369	0.000	
		174.900	3860.501	76.417	0.000	
		175.000	3826.159	76.465	0.000	
		175.100	3768.112	76.513	0.000	
		175.200	3702.694	76.560	0.000	
		175.300	3653.674	76.608	0.000	
		175.400	3615.205	76.657	0.000	
		175.500	3608.263	76.705	0.000	
		175.600	3628.013	76.753	0.000	
		175.700	3679.606	76.801	0.000	
		175.800	3703.771	76.849	0.000	
		175.900	3708.698	76.897	0.000	
		176.000	3722.438	76.934	0.000	
		176.100	3721.060	76.943	0.000	
		176.200	3729.044	76.961	0.000	
		176.300	3754.966	76.997	0.000	
		176.400	3783.478	77.037	0.000	
		176.500	3858.881	77.085	0.000	
		176.600	3943.159	77.133	0.000	
		176.700	4012.033	77.180	0.000	
		176.800	4057.370	77.226	0.000	
		176.900	4045.386	77.274	0.000	
		177.000	4029.389	77.321	0.000	
		177.100	4021.721	77.368	0.000	
		177.200	4018.525	77.416	0.000	
		177.300	4010.348	77.464	0.000	
		177.400	4018.585	77.512	0.000	
		177.500	4035.269	77.559	0.000	
		177.600	4009.559	77.606	0.000	
		177.700	4000.634	77.652	0.000	
		177.800	4015.527	77.699	0.000	
		177.900	3997.531	77.746	0.000	
		178.000	3982.990	77.794	0.000	
		178.100	4006.441	77.842	0.000	
		178.200	4028.946	77.890	0.000	
		178.300	4005.435	77.938	0.000	
		178.400	3980.273	77.984	0.000	
		178.500	3991.285	78.029	0.000	
		178.600	3979.702	78.074	0.000	
		178.700	3960.831	78.122	0.000	
		178.800	3970.115	78.169	0.000	
		178.900	3964.313	78.216	0.000	
		179.000	3955.275	78.247	0.000	
		179.100	3937.900	78.249	0.000	
		179.200	3919.278	78.265	0.000	
		179.300	3900.893	78.308	0.000	
		179.400	3867.872	78.353	0.000	
		179.500	3810.647	78.401	0.000	
		179.600	3736.632	78.448	0.000	
		179.700	3699.677	78.496	0.000	
		179.800	3680.816	78.544	0.000	
		179.900	3661.139	78.592	0.000	
		180.000	3684.779	78.640	0.000	
		180.100	3695.619	78.687	0.000	
		180.200	3691.209	78.735	0.000	
		180.300	3678.521	78.782	0.000	
		180.400	3672.701	78.830	0.000	
		180.500	3711.733	78.877	0.000	
		180.600	3747.049	78.924	0.000	
		180.700	3771.475	78.971	0.000	
		180.800	3789.195	79.018	0.000	
		180.900	3791.980	79.066	0.000	
		181.000	3815.731	79.107	0.000	
		181.100	3876.232	79.133	0.000	
		181.200	3946.378	79.157	0.000	
		181.300	4013.907	79.177	0.000	
		181.400	4046.959	79.208	0.000	
		181.500	4036.554	79.254	0.000	
		181.600	4019.511	79.301	0.000	
		181.700	4003.733	79.348	0.000	
		181.800	3999.660	79.396	0.000	
		181.900	4024.841	79.444	0.000	
		182.000	4207.182	79.488	0.000	
		182.100	4602.568	79.526	0.000	
		182.200	5152.389	79.552	0.000	
		182.300	6002.017	79.558	0.000	
		182.400	6654.285	79.580	0.000	
		182.500	6833.543	79.627	0.000	
		182.600	6901.214	79.674	0.000	
		182.700	7048.254	79.719	0.000	
		182.800	7189.319	79.766	0.000	
		182.900	7154.418	79.813	0.000	
		183.000	7002.221	79.859	0.000	
		183.100	7039.442	79.905	0.000	
		183.200	7454.129	79.951	0.000	
		183.300	8062.270	79.998	0.000	
		183.400	8492.516	80.045	0.000	
		183.500	8628.419	80.091	0.000	
		183.600	8580.263	80.137	0.000	
		183.700	8461.322	80.184	0.000	
		183.800	8351.583	80.219	0.000	
		183.900	8310.012	80.238	0.000	
		184.000	8283.765	80.259	0.000	
		184.100	8266.727	80.284	0.000	
		184.200	8289.043	80.318	0.000	
		184.300	8552.451	80.364	0.336	
		184.400	9058.182	80.411	0.926	
		184.500	8934.605	80.457	0.806	
		184.600	8094.457	80.503	1.198	
		184.700	7514.763	80.549	3.350	
		184.800	7318.294	80.596	6.219	
		184.900	7259.841	80.641	9.648	
		185.000	7059.736	80.688	13.162	
		185.100	6854.886	80.735	17.164	
		185.200	6802.747	80.781	21.362	
		185.300	6815.955	80.825	24.375	
		185.400	6703.148	80.870	26.875	
		185.500	6844.261	80.918	29.504	
		185.600	7231.046	80.966	32.332	
		185.700	7663.923	81.014	35.088	
		185.800	8291.128	81.062	37.744	
		185.900	8906.529	81.109	40.300	
		186.000	9469.477	81.156	42.756	
		186.100	10117.751	81.203	45.200	
		186.200	10622.261	81.265	47.216	
		186.300	10723.654	81.347	48.572	
		186.400	10283.447	81.421	49.660	
		186.500	9964.664	81.482	49.965	
		186.600	9837.696	81.550	49.260	
		186.700	9519.933	81.627	48.060	
		186.800	9117.346	81.699	46.410	
		186.900	8726.202	81.766	44.165	
		187.000	8416.047	81.824	42.135	
		187.100	8129.783	81.871	40.326	
		187.200	7799.869	81.919	38.518	
		187.300	7448.679	81.966	36.818	
		187.400	7171.405	82.014	35.164	
		187.500	6920.723	82.061	33.564	
		187.600	6660.732	82.109	32.056	
		187.700	6394.792	82.157	30.656	
		187.800	6150.553	82.204	29.348	
		187.900	5931.344	82.251	28.183	
		188.000	5742.442	82.297	27.271	
		188.100	5599.737	82.344	26.665	
		188.200	5578.547	82.388	26.424	
		188.300	5791.738	82.428	26.474	
		188.400	6040.058	82.450	26.594	
		188.500	5772.506	82.451	26.841	
		188.600	5439.083	82.474	27.240	
		188.700	5679.315	82.522	27.548	
		188.800	6171.412	82.547	27.696	
		188.900	6309.744	82.549	27.944	
		189.000	5934.652	82.569	28.196	
		189.100	5766.852	82.609	28.444	
		189.200	6060.459	82.634	28.744	
		189.300	6255.423	82.645	28.996	
		189.400	6189.116	82.650	29.149	
		189.500	6413.362	82.650	29.249	
		189.600	6753.838	82.650	29.447	
		189.700	6991.866	82.650	29.747	
		189.800	7248.600	82.639	30.488	
		189.900	7621.665	82.618	31.835	
		190.000	8133.099	82.593	33.433	
		190.100	8674.884	82.564	35.329	
		190.200	9262.000	82.544	37.350	
		190.300	9919.512	82.531	39.350	
		190.400	10517.815	82.501	41.550	
		190.500	11019.626	82.455	43.800	
		190.600	11514.988	82.411	46.100	
		190.700	11963.180	82.370	48.450	
		190.800	12216.342	82.350	50.900	
		190.900	12261.203	82.350	53.271	
		191.000	12300.760	82.327	55.014	
		191.100	12091.433	82.281	56.414	
		191.200	11370.685	82.234	57.049	
		191.300	10743.920	82.185	56.439	
		191.400	10476.418	82.138	55.135	
		191.500	10262.342	82.091	53.482	
		191.600	9960.297	82.044	50.866	
		191.700	9610.775	81.996	48.160	
		191.800	9260.182	81.949	46.004	
		191.900	8903.633	81.902	43.860	
		192.000	8549.413	81.872	42.172	
		192.100	8309.464	81.857	40.876	
		192.200	8266.490	81.835	39.780	
		192.300	8671.867	81.806	39.092	
		192.400	9073.470	81.768	38.692	
		192.500	8771.387	81.720	38.235	
		192.600	8202.263	81.673	38.159	
		192.700	7826.559	81.626	38.194	
		192.800	7723.830	81.590	37.994	
		192.900	7794.623	81.562	37.635	
		193.000	7807.027	81.550	37.029	
		193.100	7729.091	81.550	36.064	
		193.200	7617.614	81.544	34.906	
		193.300	7455.165	81.535	33.914	
		193.400	7279.164	81.508	33.176	
		193.500	7205.442	81.468	32.981	
		193.600	7256.396	81.449	33.131	
		193.700	7231.630	81.449	33.362	
		193.800	7204.316	81.449	33.662	
		193.900	7379.543	81.449	33.908	
		194.000	7538.373	81.426	34.220	
		194.100	7918.502	81.383	34.840	
		194.200	8458.738	81.339	35.695	
		194.300	8849.420	81.293	36.815	
		194.400	9264.633	81.266	38.335	
		194.500	9744.576	81.254	40.200	
		194.600	10072.193	81.234	42.420	
		194.700	10295.145	81.206	44.564	
		194.800	10697.677	81.181	46.576	
		194.900	11309.425	81.159	48.452	
		195.000	11896.803	81.139	49.928	
		195.100	12062.601	81.119	51.396	
		195.200	11242.072	81.085	52.492	
		195.300	11976.672	81.040	52.912	
		195.400	13364.926	81.000	52.972	
		195.500	13600.373	80.965	52.922	
		195.600	13546.812	80.946	52.273	
		195.700	13037.263	80.939	51.572	
		195.800	12221.843	80.909	51.115	
		195.900	11968.322	80.862	50.615	
		196.000	12683.992	80.816	50.172	
		196.100	13420.271	80.770	49.829	
		196.200	12927.896	80.750	49.472	
		196.300	11695.005	80.750	49.126	
		196.400	10558.326	80.724	48.826	
		196.500	9680.392	80.679	48.468	
		196.600	8959.332	80.633	48.126	
		196.700	8290.010	80.586	47.768	
		196.800	7691.917	80.539	47.426	
		196.900	7065.141	80.492	47.068	
		197.000	6456.214	80.466	46.605	
		197.100	5852.234	80.454	46.164	
		197.200	5228.567	80.429	45.469	
		197.300	5144.007	80.395	44.510	
		197.400	5655.985	80.352	43.451	
		197.500	6586.274	80.305	42.410	
		197.600	7659.592	80.275	41.292	
		197.700	8223.162	80.257	40.151	
		197.800	8100.831	80.233	39.100	
		197.900	7805.160	80.207	38.040	
		198.000	7635.469	80.167	36.940	
		198.100	7442.395	80.120	35.900	
		198.200	7201.311	80.085	34.960	
		198.300	7016.146	80.060	34.000	
		198.400	6926.874	80.038	33.060	
		198.500	7107.611	80.020	32.400	
		198.600	7650.649	79.993	32.078	
		198.700	7416.294	79.962	31.756	
		198.800	7015.944	79.949	31.722	
		198.900	6903.552	79.949	31.861	
		199.000	6839.187	79.945	31.717	
		199.100	6972.752	79.937	31.631	
		199.200	7338.238	79.909	31.681	
		199.300	7391.140	79.866	31.762	
		199.400	7502.991	79.849	31.924	
		199.500	7747.853	79.848	32.372	
		199.600	7947.175	79.818	33.344	
		199.700	8079.365	79.771	34.172	
		199.800	8300.596	79.752	34.896	
		199.900	8527.122	79.750	35.634	
		200.000	8621.054	79.724	36.334	
		200.100	8725.169	79.683	36.978	
		200.200	8838.146	79.638	37.830	
		200.300	8854.002	79.591	38.704	
		200.400	8960.454	79.566	39.693	
		200.500	9257.657	79.554	41.108	
		200.600	9819.321	79.530	42.834	
		200.700	10271.649	79.498	44.571	
		200.800	10803.867	79.457	46.352	
		200.900	11336.384	79.410	48.152	
		201.000	10154.922	79.365	50.080	
		201.100	8815.554	79.320	52.016	
		201.200	8640.456	79.286	53.980	
		201.300	8955.176	79.259	55.916	
		201.400	9174.605	79.240	57.816	
		201.500	9572.925	79.226	59.908	
		201.600	10009.257	79.191	62.260	
		201.700	10299.995	79.146	64.335	
		201.800	10542.755	79.101	66.235	
		201.900	10533.461	79.055	68.070	
		202.000	10074.622	79.010	69.740	
		202.100	9589.478	78.965	71.145	
		202.200	9769.817	78.919	72.705	
		202.300	10199.430	78.873	74.275	
		202.400	10602.885	78.855	75.790	
		202.500	10828.323	78.851	77.290	
		202.600	10925.122	78.824	78.922	
		202.700	10289.819	78.785	80.424	
		202.800	9727.401	78.765	81.692	
		202.900	9845.316	78.753	82.892	
		203.000	10204.707	78.728	84.092	
		203.100	10484.494	78.696	85.371	
		203.200	10551.650	78.674	85.934	
		203.300	10201.688	78.655	86.268	
		203.400	9490.009	78.632	86.199	
		203.500	8879.221	78.605	85.028	
		203.600	8662.565	78.580	82.825	
		203.700	8388.477	78.557	80.258	
		203.800	7827.642	78.536	77.055	
		203.900	8122.278	78.515	73.316	
		204.000	8887.944	78.489	69.652	
		204.100	9518.338	78.459	65.848	
		204.200	10007.229	78.449	61.948	
		204.300	10102.347	78.449	57.844	
		204.400	9849.907	78.449	53.712	
		204.500	9211.002	78.449	49.816	
		204.600	7868.352	78.449	45.608	
		204.700	6335.870	78.449	41.992	
		204.800	5543.549	78.446	39.137	
		204.900	5324.609	78.441	36.713	
		205.000	5132.643	78.409	34.689	
		205.100	5036.500	78.364	33.272	
		205.200	5226.472	78.350	32.072	
		205.300	5509.235	78.350	31.631	
		205.400	5229.014	78.350	31.670	
		205.500	5047.008	78.350	31.420	
		205.600	4936.180	78.350	31.510	
		205.700	4947.700	78.350	31.530	
		205.800	5165.401	78.326	31.547	
		205.900	5176.792	78.292	31.613	
		206.000	5192.157	78.271	31.680	
		206.100	5256.931	78.255	31.840	
		206.200	5415.976	78.250	32.468	
		206.300	5612.526	78.250	33.339	
		206.400	5776.909	78.235	34.452	
		206.500	5973.828	78.214	35.865	
		206.600	6193.195	78.187	37.649	
		206.700	6453.182	78.158	39.407	
		206.800	6676.482	78.140	41.249	
		206.900	6925.945	78.125	43.096	
		207.000	7222.398	78.096	44.752	
		207.100	7355.538	78.060	46.352	
		207.200	7625.772	78.045	47.952	
		207.300	7921.082	78.039	49.696	
		207.400	8217.990	78.003	51.352	
		207.500	8516.377	77.957	52.952	
		207.600	8773.655	77.911	54.480	
		207.700	8991.827	77.865	55.995	
		207.800	9092.126	77.818	57.495	
		207.900	9234.013	77.772	58.922	
		208.000	9542.369	77.727	60.395	
		208.100	9883.067	77.682	61.822	
		208.200	10011.518	77.662	63.222	
		208.300	10260.687	77.652	64.841	
		208.400	10556.733	77.627	66.395	
		208.500	10710.098	77.596	67.762	
		208.600	10857.671	77.553	69.358	
		208.700	10828.095	77.505	70.022	
		208.800	10426.514	77.457	69.915	
		208.900	10151.183	77.410	69.665	
		209.000	10003.248	77.380	68.564	
		209.100	9726.894	77.356	66.498	
		209.200	9268.877	77.333	64.100	
		209.300	8613.783	77.312	61.025	
		209.400	7777.146	77.271	57.575	
		209.500	6993.592	77.224	54.300	
		209.600	6529.444	77.189	50.650	
		209.700	6506.181	77.157	47.675	
		209.800	7013.955	77.140	44.825	
		209.900	7779.188	77.129	42.150	
		210.000	8250.871	77.097	40.132	
		210.100	8025.140	77.059	38.560	
		210.200	7489.159	77.049	37.516	
		210.300	7814.298	77.049	37.376	
		210.400	8599.898	77.049	37.476	
		210.500	8784.788	77.049	37.652	
		210.600	8703.803	77.049	38.536	
		210.700	8750.085	77.049	39.185	
		210.800	8891.843	77.049	39.993	
		210.900	8868.022	77.049	40.893	
		211.000	8680.513	77.018	41.177	
		211.100	8333.972	76.978	41.046	
		211.200	7986.783	76.962	40.769	
		211.300	7924.039	76.952	40.084	
		211.400	7820.661	76.950	39.130	
		211.500	7551.457	76.950	38.120	
		211.600	7368.604	76.950	36.886	
		211.700	7100.201	76.950	35.508	
		211.800	6932.143	76.950	34.420	
		211.900	7249.142	76.950	33.498	
		212.000	8034.243	76.931	32.520	
		212.100	7661.769	76.907	32.144	
		212.200	6979.178	76.881	31.476	
		212.300	6463.295	76.855	30.510	
		212.400	5964.178	76.836	29.747	
		212.500	5779.776	76.819	29.205	
		212.600	6344.159	76.789	28.389	
		212.700	6912.239	76.757	28.240	
		212.800	7225.469	76.743	28.290	
		212.900	7573.975	76.734	28.616	
		213.000	8046.803	76.699	29.260	
		213.100	8430.155	76.658	30.200	
		213.200	8599.675	76.647	31.360	
		213.300	8629.247	76.644	32.560	
		213.400	8430.026	76.606	33.920	
		213.500	8103.452	76.559	35.560	
		213.600	8193.026	76.512	37.340	
		213.700	8468.753	76.466	38.980	
		213.800	8561.016	76.419	40.434	
		213.900	8759.427	76.373	41.591	
		214.000	8914.154	76.358	42.529	
		214.100	8833.426	76.351	43.267	
		214.200	9134.828	76.323	43.724	
		214.300	9502.618	76.290	44.367	
		214.400	9737.869	76.246	44.986	
		214.500	9650.475	76.200	45.262	
		214.600	9721.237	76.174	45.628	
		214.700	9741.701	76.153	45.864	
		214.800	9839.687	76.131	45.982	
		214.900	9891.935	76.108	46.082	
		215.000	9914.350	76.082	46.182	
		215.100	9828.975	76.054	46.118	
		215.200	9748.857	76.038	46.182	
		215.300	9741.258	76.023	46.366	
		215.400	9837.679	75.991	46.566	
		215.500	10161.672	75.956	46.932	
		215.600	10422.923	75.950	47.332	
		215.700	10522.879	75.950	47.649	
		215.800	10521.987	75.950	48.115	
		215.900	10454.749	75.950	48.532	
		216.000	10368.391	75.913	48.766	
		216.100	10357.924	75.868	48.968	
		216.200	10327.012	75.856	48.832	
		216.300	10018.403	75.850	48.464	
		216.400	9671.216	75.849	47.980	
		216.500	9360.441	75.849	47.144	
		216.600	9202.896	75.849	45.992	
		216.700	8787.720	75.849	44.876	
		216.800	8433.830	75.849	43.425	
		216.900	8202.880	75.849	41.925	
		217.000	8052.799	75.849	40.850	
		217.100	7745.910	75.849	39.340	
		217.200	7336.295	75.849	37.825	
		217.300	7094.631	75.849	36.580	
		217.400	7193.048	75.849	35.550	
		217.500	7203.912	75.849	34.380	
		217.600	6968.170	75.831	33.856	
		217.700	6866.192	75.810	33.026	
		217.800	6923.057	75.783	32.212	
		217.900	6833.097	75.754	31.412	
		218.000	6622.237	75.749	30.526	
		218.100	6409.831	75.749	29.454	
		218.200	6283.559	75.739	28.956	
		218.300	5893.347	75.726	28.470	
		218.400	5379.736	75.692	28.139	
		218.500	5836.361	75.654	28.274	
		218.600	6825.244	75.649	28.474	
		218.700	6145.926	75.649	28.239	
		218.800	5473.274	75.649	28.113	
		218.900	5606.545	75.649	27.839	
		219.000	5620.061	75.649	27.017	
		219.100	5493.583	75.649	26.724	
		219.200	5601.346	75.614	26.524	
		219.300	6362.336	75.573	26.676	
		219.400	6749.927	75.528	27.404	
		219.500	7047.472	75.482	28.732	
		219.600	7241.585	75.465	30.572	
		219.700	7223.722	75.452	32.560	
		219.800	7342.961	75.425	34.472	
		219.900	8165.196	75.396	36.302	
		220.000	8442.599	75.374	38.013	
		220.100	8727.004	75.352	39.980	
		220.200	9311.055	75.332	40.823	
		220.300	9452.871	75.311	41.434	
		220.400	9176.026	75.282	41.856	
		220.500	8933.541	75.253	41.811	
		220.600	8779.599	75.238	41.266	
		220.700	8825.437	75.225	41.650	
		220.800	8955.886	75.191	42.060	
		220.900	9053.367	75.154	42.460	
		221.000	9187.041	75.145	42.950	
		221.100	9367.004	75.139	43.630	
		221.200	9548.902	75.098	43.790	
		221.300	9443.469	75.054	43.890	
		221.400	9235.930	75.050	44.173	
		221.500	9498.377	75.050	44.291	
		221.600	9743.896	75.013	44.391	
		221.700	9589.021	74.972	44.764	
		221.800	9687.546	74.960	45.164	
		221.900	9658.142	74.951	45.382	
		222.000	9596.213	74.922	45.309	
		222.100	9584.620	74.891	45.209	
		222.200	9668.267	74.870	44.924	
		222.300	9921.944	74.851	44.624	
		222.400	10251.604	74.850	44.692	
		222.500	10585.263	74.850	45.344	
		222.600	10991.163	74.833	46.504	
		222.700	11421.547	74.816	48.072	
		222.800	11779.368	74.784	50.132	
		222.900	11913.606	74.752	52.253	
		223.000	11347.983	74.750	54.353	
		223.100	9883.173	74.750	56.453	
		223.200	9321.876	74.750	58.553	
		223.300	9694.406	74.750	60.839	
		223.400	9998.234	74.750	62.860	
		223.500	10261.234	74.750	64.116	
		223.600	10303.267	74.750	65.688	
		223.700	9768.509	74.750	65.330	
		223.800	9269.023	74.750	64.360	
		223.900	8605.207	74.750	62.702	
		224.000	8026.971	74.750	59.874	
		224.100	8346.978	74.750	54.342	
		224.200	9069.773	74.750	50.898	
		224.300	9227.392	74.750	47.316	
		224.400	8679.063	74.750	43.810	
		224.500	7949.449	74.750	40.940	
		224.600	7574.822	74.750	38.425	
		224.700	7370.218	74.750	36.305	
		224.800	7097.017	74.722	34.585	
		224.900	6840.610	74.694	33.170	
		225.000	6664.310	74.696	32.055	
		225.100	6764.113	74.700	31.145	
		225.200	7129.007	74.704	30.908	
		225.300	7257.858	74.707	31.380	
		225.400	7049.689	74.679	31.976	
		225.500	7162.335	74.651	32.384	
		225.600	7178.952	74.650	33.168	
		225.700	7292.905	74.650	33.392	
		225.800	7367.366	74.650	33.784	
		225.900	7488.489	74.650	34.280	
		226.000	8284.314	74.650	34.688	
		226.100	8738.205	74.650	35.476	
		226.200	9203.012	74.650	36.761	
		226.300	10078.754	74.650	38.352	
		226.400	10635.105	74.650	40.146	
		226.500	10871.623	74.650	41.946	
		226.600	10787.334	74.650	43.940	
		226.700	10744.290	74.650	45.274	
		226.800	10961.872	74.650	46.770	
		226.900	11173.989	74.650	47.976	
		227.000	11179.702	74.613	48.490	
		227.100	10921.735	74.575	49.382	
		227.200	10621.826	74.562	49.106	
		227.300	10399.938	74.550	48.806	
		227.400	10207.669	74.550	48.114	
		227.500	10208.516	74.550	47.506	
		227.600	10242.604	74.550	46.510	
		227.700	10359.327	74.550	45.906	
		227.800	10595.602	74.550	45.405	
		227.900	11094.768	74.550	45.004	
		228.000	9591.964	74.550	45.198	
		228.100	8992.071	74.550	45.398	
		228.200	8797.874	74.550	45.598	
		228.300	9022.700	74.550	46.600	
		228.400	9123.922	74.557	48.000	
		228.500	9483.248	74.565	49.700	
		228.600	9303.370	74.607	51.800	
		228.700	9178.509	74.650	54.100	
		228.800	9181.303	74.650	56.200	
		228.900	9406.526	74.651	58.300	
		229.000	9733.395	74.697	60.727	
		229.100	10034.223	74.742	63.414	
		229.200	10392.056	74.746	64.815	
		229.300	10489.286	74.750	66.309	
		229.400	9959.330	74.790	67.195	
		229.500	9621.704	74.829	66.686	
		229.600	9304.190	74.839	65.282	
		229.700	8913.572	74.850	63.469	
		229.800	8523.297	74.883	60.336	
		229.900	7929.011	74.916	57.148	
		230.000	7066.521	74.963	54.536	
		230.100	6122.567	75.010	51.350	
		230.200	5469.990	75.057	48.856	
		230.300	4836.674	75.104	46.658	
		230.400	4406.380	75.151	44.556	
		230.500	4599.359	75.198	42.352	
		230.600	5004.708	75.245	39.949	
		230.700	5349.736	75.292	38.246	
		230.800	5821.756	75.339	36.464	
		230.900	6715.133	75.386	35.312	
		231.000	8101.191	75.432	35.712	
		231.100	8976.243	75.478	36.124	
		231.200	8712.017	75.524	36.954	
		231.300	8539.200	75.569	38.772	
		231.400	9018.943	75.615	40.552	
		231.500	9377.497	75.661	41.876	
		231.600	9639.623	75.706	43.748	
		231.700	10010.357	75.751	44.948	
		231.800	10299.048	75.796	46.144	
		231.900	10586.164	75.839	47.240	
		232.000	10778.662	75.845	48.244	
		232.100	10497.679	75.851	49.350	
		232.200	9143.930	75.887	50.345	
		232.300	8074.160	75.923	51.240	
		232.400	8146.058	75.969	52.030	
		232.500	8178.702	76.014	52.640	
		232.600	8353.046	76.032	53.405	
		232.700	8496.251	76.051	53.493	
		232.800	8331.784	76.076	53.341	
		232.900	8070.477	76.101	53.152	
		233.000	7592.758	76.126	52.340	
		233.100	7242.664	76.151	51.322	
		233.200	6706.941	76.170	49.998	
		233.300	5927.388	76.190	48.286	
		233.400	5562.182	76.221	46.380	
		233.500	5574.732	76.250	44.362	
		233.600	5351.497	76.250	42.060	
		233.700	5165.042	76.250	40.053	
		233.800	5289.537	76.250	37.974	
		233.900	5260.545	76.250	36.209	
		234.000	5535.056	76.255	34.944	
		234.100	6869.640	76.263	34.172	
		234.200	8506.400	76.308	33.793	
		234.300	9083.027	76.350	33.707	
		234.400	8803.709	76.350	33.832	
		234.500	8969.283	76.350	34.264	
		234.600	9635.583	76.350	35.040	
		234.700	10449.827	76.350	35.532	
		234.800	10606.710	76.350	35.948	
		234.900	10588.598	76.353	36.588	
		235.000	10766.017	76.389	37.664	
		235.100	10843.897	76.423	38.553	
		235.200	10919.292	76.437	40.262	
		235.300	10764.954	76.452	42.089	
		235.400	10669.756	76.476	44.225	
		235.500	10659.133	76.500	46.752	
		235.600	10979.986	76.526	49.480	
		235.700	11361.682	76.551	51.480	
		235.800	11894.304	76.566	53.426	
		235.900	12047.725	76.582	54.740	
		236.000	11079.198	76.618	55.150	
		236.100	10293.107	76.651	55.480	
		236.200	9653.349	76.659	54.100	
		236.300	8757.525	76.671	51.110	
		236.400	7857.104	76.712	48.330	
		236.500	7178.510	76.750	46.580	
		236.600	6834.270	76.753	44.470	
		236.700	7166.709	76.761	43.168	
		236.800	8279.854	76.807	41.968	
		236.900	9504.851	76.853	40.768	
		237.000	8939.988	76.900	39.568	
		237.100	8435.197	76.941	38.357	
		237.200	9216.955	76.946	37.068	
		237.300	9527.790	76.954	35.868	
		237.400	9226.450	76.995	34.692	
		237.500	8833.556	77.031	33.948	
		237.600	8410.323	77.041	34.348	
		237.700	8202.370	77.053	34.748	
		237.800	8063.041	77.087	35.148	
		237.900	8046.192	77.119	35.560	
		238.000	8286.897	77.135	36.048	
		238.100	8250.553	77.153	36.448	
		238.200	7959.703	77.180	36.852	
		238.300	8213.890	77.210	37.252	
		238.400	8868.781	77.257	37.678	
		238.500	9175.497	77.301	38.291	
		238.600	9460.461	77.327	39.017	
		238.700	9219.790	77.352	39.930	
		238.800	9301.756	77.369	40.982	
		238.900	9606.463	77.391	42.438	
		239.000	10416.198	77.436	44.096	
		239.100	10825.486	77.481	45.566	
		239.200	11316.964	77.518	47.536	
		239.300	11737.019	77.550	49.922	
		239.400	11451.213	77.555	52.194	
		239.500	10128.759	77.565	54.308	
		239.600	9312.345	77.611	56.480	
		239.700	9349.113	77.650	58.515	
		239.800	9531.484	77.650	60.555	
		239.900	9934.565	77.656	62.195	
		240.000	10206.908	77.698	63.555	
		240.100	10013.211	77.741	64.985	
		240.200	9528.862	77.788	64.810	
		240.300	9092.309	77.829	64.120	
		240.400	8701.896	77.840	62.770	
		240.500	7998.285	77.855	60.228	
		240.600	7044.858	77.887	56.316	
		240.700	6453.371	77.921	53.916	
		240.800	6162.179	77.968	51.548	
		240.900	6001.763	78.011	49.396	
		241.000	5753.201	78.032	47.512	
		241.100	5287.435	78.054	45.744	
		241.200	5104.737	78.078	44.128	
		241.300	5876.904	78.106	42.511	
		241.400	7400.514	78.153	40.828	
		241.500	8452.465	78.196	39.211	
		241.600	8098.941	78.226	37.528	
		241.700	7196.562	78.252	35.979	
		241.800	6682.889	78.265	34.713	
		241.900	6694.620	78.284	33.630	
		242.000	6678.221	78.331	32.710	
		242.100	6511.465	78.377	32.192	
		242.200	6342.792	78.417	31.520	
		242.300	6153.634	78.450	30.502	
		242.400	5969.437	78.455	29.438	
		242.500	5777.859	78.467	28.538	
		242.600	5629.895	78.512	27.602	
		242.700	5479.683	78.558	26.502	
		242.800	5303.725	78.607	25.391	
		242.900	5167.018	78.655	24.329	
		243.000	5107.701	78.702	23.467	
		243.100	5225.803	78.749	22.862	
		243.200	5495.001	78.795	22.757	
		243.300	5832.340	78.834	23.114	
		243.400	6409.702	78.843	23.752	
		243.500	7001.576	78.856	24.640	
		243.600	7311.602	78.890	25.900	
		243.700	7913.517	78.920	27.460	
		243.800	8475.975	78.936	29.280	
		243.900	8812.219	78.955	31.220	
		244.000	8828.166	78.980	33.400	
		244.100	8753.979	79.005	35.640	
		244.200	8158.469	79.030	36.800	
		244.300	7594.864	79.054	37.684	
		244.400	7046.328	79.073	37.811	
		244.500	6864.826	79.095	36.617	
		244.600	6663.618	79.125	34.527	
		244.700	6481.688	79.150	33.227	
		244.800	6376.952	79.150	31.948	
		244.900	6545.149	79.151	30.832	
		245.000	6883.755	79.160	30.215	
		245.100	6772.746	79.175	30.281	
		245.200	6666.070	79.217	30.348	
		245.300	6969.903	79.250	30.488	
		245.400	7193.360	79.250	30.866	
		245.500	7089.228	79.250	31.144	
		245.600	7112.000	79.250	31.432	
		245.700	7374.798	79.250	32.032	
		245.800	7591.812	79.250	32.684	
		245.900	7698.896	79.259	33.553	
		246.000	7774.168	79.298	34.630	
		246.100	8013.692	79.331	35.722	
		246.200	8380.409	79.342	37.145	
		246.300	8425.646	79.350	38.599	
		246.400	8607.076	79.350	39.830	
		246.500	8903.572	79.357	40.830	
		246.600	8992.544	79.387	41.696	
		246.700	8875.368	79.415	42.048	
		246.800	8977.682	79.435	42.248	
		246.900	9060.937	79.455	42.496	
		247.000	9292.178	79.477	42.944	
		247.100	9625.319	79.505	43.496	
		247.200	9908.164	79.549	44.016	
		247.300	10152.096	79.592	44.900	
		247.400	10340.624	79.625	45.675	
		247.500	10414.660	79.652	46.450	
		247.600	10396.500	79.660	47.225	
		247.700	10092.190	79.679	47.225	
		247.800	9355.861	79.726	46.900	
		247.900	8808.652	79.773	46.450	
		248.000	8395.330	79.820	45.675	
		248.100	8231.834	79.868	44.570	
		248.200	9086.205	79.915	44.018	
		248.300	9949.870	79.949	43.344	
		248.400	9609.154	79.949	42.874	
		248.500	9300.263	79.971	42.878	
		248.600	9196.217	80.056	43.178	
		248.700	9349.416	80.133	43.478	
		248.800	9789.385	80.187	43.835	
		248.900	10088.315	80.229	44.362	
		249.000	10324.145	80.241	45.043	
		249.100	10609.433	80.258	45.835	
		249.200	10683.684	80.289	46.443	
		249.300	10202.382	80.325	47.262	
		249.400	9272.799	80.372	47.565	
		249.500	8626.870	80.420	46.903	
		249.600	8155.950	80.468	45.764	
		249.700	8032.309	80.516	44.284	
		249.800	7849.182	80.564	42.056	
		249.900	7623.485	80.605	39.840	
		250.000	7302.207	80.631	37.840	
		250.100	6888.731	80.655	35.868	
		250.200	6435.181	80.672	34.136	
		250.300	6336.719	80.698	32.976	
		250.400	7102.404	80.745	32.313	
		250.500	7763.897	80.788	32.332	
		250.600	7923.553	80.824	32.987	
		250.700	8031.136	80.852	33.345	
		250.800	7926.850	80.859	33.816	
		250.900	7598.693	80.878	34.057	
		251.000	7198.051	80.926	33.907	
		251.100	6811.275	80.973	33.560	
		251.200	6541.651	81.018	32.730	
		251.300	6301.169	81.050	31.770	
		251.400	5999.201	81.050	30.670	
		251.500	5769.572	81.064	29.480	
		251.600	5709.398	81.109	28.470	
		251.700	5982.546	81.154	28.340	
		251.800	6642.421	81.201	28.290	
		251.900	7074.427	81.236	28.872	
		252.000	6974.946	81.244	30.041	
		252.100	7146.013	81.249	31.172	
		252.200	7581.039	81.249	32.496	
		252.300	8168.950	81.259	34.003	
		252.400	8358.061	81.290	35.148	
		252.500	8730.797	81.317	36.196	
		252.600	9238.992	81.336	37.548	
		252.700	9776.787	81.357	38.388	
		252.800	10345.872	81.379	39.288	
		252.900	10732.036	81.403	40.252	
		253.000	10739.420	81.431	41.384	
		253.100	10369.606	81.449	42.616	
		253.200	9942.120	81.449	43.852	
		253.300	9883.210	81.449	45.016	
		253.400	10309.161	81.449	46.395	
		253.500	10569.217	81.449	47.763	
		253.600	9988.020	81.449	49.127	
		253.700	9165.180	81.449	50.994	
		253.800	8882.389	81.449	52.827	
		253.900	8980.694	81.449	54.859	
		254.000	9173.686	81.449	57.291	
		254.100	9553.214	81.449	59.793	
		254.200	9964.372	81.449	61.982	
		254.300	10345.511	81.449	64.214	
		254.400	10254.282	81.449	66.212	
		254.500	9671.533	81.438	67.876	
		254.600	9597.717	81.405	69.378	
		254.700	10533.809	81.378	70.976	
		254.800	10808.763	81.361	72.410	
		254.900	10991.505	81.349	74.030	
		255.000	11104.225	81.349	76.005	
		255.100	11159.413	81.342	77.955	
		255.200	11214.419	81.320	79.395	
		255.300	10963.363	81.296	80.885	
		255.400	10282.921	81.268	81.565	
		255.500	9879.432	81.249	81.465	
		255.600	9697.124	81.249	80.910	
		255.700	9396.331	81.244	79.028	
		255.800	8833.856	81.231	76.220	
		255.900	8570.422	81.209	73.292	
		256.000	8976.864	81.173	70.024	
		256.100	9199.423	81.150	66.320	
		256.200	8904.638	81.150	63.284	
		256.300	8267.573	81.150	60.256	
		256.400	7525.521	81.150	57.464	
		256.500	6815.255	81.150	54.875	
		256.600	6244.091	81.150	52.560	
		256.700	6045.433	81.150	50.671	
		256.800	6458.020	81.150	49.008	
		256.900	7021.089	81.150	47.408	
		257.000	7061.451	81.150	45.993	
		257.100	6907.671	81.135	44.856	
		257.200	6956.437	81.093	43.796	
		257.300	7094.846	81.064	43.148	
		257.400	7159.318	81.055	42.786	
		257.500	7154.981	81.050	42.676	
		257.600	7192.728	81.050	43.028	
		257.700	7240.063	81.050	43.818	
		257.800	7491.781	81.050	44.956	
		257.900	7794.269	81.050	46.232	
		258.000	8247.340	81.050	47.763	
		258.100	8682.980	81.050	49.502	
		258.200	8975.173	81.050	51.341	
		258.300	9420.823	81.042	53.319	
		258.400	9715.946	81.023	55.380	
		258.500	10045.395	80.999	57.536	
		258.600	10285.761	80.968	59.624	
		258.700	10379.419	80.950	61.146	
		258.800	10222.102	80.950	62.360	
		258.900	9661.536	80.950	62.980	
		259.000	9019.047	80.950	63.060	
		259.100	8688.131	80.948	62.520	
		259.200	8482.293	80.944	60.720	
		259.300	8027.117	80.923	57.980	
		259.400	7777.093	80.877	55.380	
		259.500	8643.445	80.850	52.811	
		259.600	9676.838	80.850	50.116	
		259.700	9606.933	80.832	47.675	
		259.800	9135.379	80.787	45.175	
		259.900	8582.648	80.759	42.757	
		260.000	8233.017	80.753	40.498	
		260.100	7955.591	80.735	38.298	
		260.200	7625.536	80.699	36.139	
		260.300	7225.441	80.658	34.186	
		260.400	6750.946	80.611	32.780	
		260.500	6484.477	80.577	31.990	
		260.600	6830.754	80.560	31.784	
		260.700	7415.231	80.538	32.152	
		260.800	7417.612	80.512	32.794	
		260.900	7192.208	80.486	33.410	
		261.000	7342.325	80.463	34.044	
		261.100	7446.319	80.442	34.586	
		261.200	7447.078	80.424	34.829	
		261.300	7484.380	80.400	35.129	
		261.400	7559.808	80.368	35.343	
		261.500	7517.196	80.345	35.434	
		261.600	7536.402	80.334	35.514	
		261.700	7686.279	80.311	35.594	
		261.800	7987.969	80.272	35.675	
		261.900	8548.655	80.249	35.755	
		262.000	9037.907	80.248	36.240	
		262.100	9697.168	80.228	37.240	
		262.200	10491.012	80.184	38.460	
		262.300	11042.088	80.157	40.004	
		262.400	11523.844	80.152	41.516	
		262.500	11874.246	80.133	42.960	
		262.600	11967.596	80.094	44.745	
		262.700	11879.322	80.068	46.890	
		262.800	11793.854	80.056	49.135	
		262.900	11793.703	80.049	51.390	
		263.000	12001.390	80.049	53.860	
		263.100	12424.286	80.039	55.940	
		263.200	12478.454	80.014	57.140	
		263.300	11715.396	79.989	58.076	
		263.400	10943.316	79.963	58.124	
		263.500	10521.891	79.941	57.018	
		263.600	10187.808	79.922	55.318	
		263.700	9874.708	79.898	53.204	
		263.800	9547.184	79.866	50.512	
		263.900	9193.806	79.849	47.988	
		264.000	8826.854	79.849	45.512	
		264.100	8456.525	79.846	43.107	
		264.200	8184.146	79.838	41.395	
		264.300	8330.533	79.814	40.083	
		264.400	9129.634	79.772	39.265	
		264.500	9433.322	79.750	39.235	
		264.600	8913.565	79.750	39.688	
		264.700	8698.086	79.750	40.229	
		264.800	8717.079	79.750	40.882	
		264.900	8800.296	79.750	41.152	
		265.000	8960.970	79.750	41.052	
		265.100	9072.679	79.730	40.808	
		265.200	9000.693	79.690	40.408	
		265.300	8803.236	79.664	40.104	
		265.400	8627.914	79.655	40.048	
		265.500	8560.862	79.650	40.148	
		265.600	8558.335	79.650	40.249	
		265.700	8612.780	79.650	40.251	
		265.800	8791.812	79.650	40.151	
		265.900	8866.722	79.636	40.223	
		266.000	8971.792	79.608	40.473	
		266.100	9320.008	79.583	40.845	
		266.200	9723.722	79.561	41.590	
		266.300	10113.223	79.550	42.786	
		266.400	10450.227	79.550	44.300	
		266.500	10621.186	79.550	46.000	
		266.600	10786.666	79.550	47.650	
		266.700	11332.316	79.544	49.150	
		266.800	11957.162	79.532	50.650	
		266.900	11422.363	79.506	52.100	
		267.000	10339.334	79.469	53.750	
		267.100	10039.390	79.450	55.567	
		267.200	10173.091	79.450	57.216	
		267.300	10554.630	79.450	58.918	
		267.400	11102.832	79.450	60.922	
		267.500	11461.060	79.450	63.326	
		267.600	11508.553	79.450	65.620	
		267.700	11437.706	79.426	67.722	
		267.800	11421.169	79.380	69.616	
		267.900	11118.200	79.355	70.660	
		268.000	10423.238	79.352	71.160	
		268.100	9882.307	79.350	70.932	
		268.200	9587.900	79.350	69.408	
		268.300	9300.095	79.332	67.100	
		268.400	9229.949	79.297	64.600	
		268.500	9659.292	79.273	61.528	
		268.600	9961.806	79.257	58.292	
		268.700	9744.647	79.235	55.310	
		268.800	9435.276	79.207	52.310	
		268.900	9180.696	79.182	49.416	
		269.000	8941.182	79.160	46.510	
		269.100	8647.680	79.150	43.828	
		269.200	8317.924	79.150	41.481	
		269.300	7935.443	79.150	39.340	
		269.400	7596.321	79.150	37.482	
		269.500	7443.315	79.150	35.998	
		269.600	7630.504	79.150	34.806	
		269.700	7984.148	79.144	33.868	
		269.800	7975.879	79.134	33.230	
		269.900	8064.438	79.108	32.784	
		270.000	8309.369	79.068	32.762	
		270.100	8280.287	79.050	32.792	
		270.200	8298.353	79.050	32.783	
		270.300	8315.094	79.050	32.932	
		270.400	8092.030	79.050	33.165	
		270.500	7976.420	79.050	33.905	
		270.600	8140.664	79.050	34.785	
		270.700	8333.984	79.050	35.705	
		270.800	8590.111	79.050	36.805	
		270.900	8860.943	79.028	37.692	
		271.000	8979.615	78.990	38.168	
		271.100	9055.092	78.966	38.636	
		271.200	9198.710	78.955	39.292	
		271.300	9507.508	78.950	40.048	
		271.400	9965.588	78.950	41.072	
		271.500	10465.988	78.936	42.328	
		271.600	10978.406	78.911	43.852	
		271.700	11489.720	78.886	45.569	
		271.800	11896.487	78.860	47.383	
		271.900	11416.013	78.850	49.397	
		272.000	10186.544	78.850	51.383	
		272.100	9830.003	78.843	53.511	
		272.200	10030.553	78.832	55.811	
		272.300	10116.318	78.805	58.111	
		272.400	10292.932	78.766	60.525	
		272.500	10569.531	78.750	63.224	
		272.600	10752.336	78.750	65.734	
		272.700	10942.383	78.749	68.034	
		272.800	11112.736	78.748	70.276	
		272.900	10790.014	78.722	72.244	
		273.000	10347.583	78.678	73.754	
		273.100	10508.884	78.656	75.228	
		273.200	10869.250	78.651	76.844	
		273.300	11041.608	78.627	78.385	
		273.400	11134.297	78.588	79.826	
		273.500	11117.504	78.545	81.226	
		273.600	10310.849	78.499	82.567	
		273.700	9930.016	78.471	83.808	
		273.800	10519.887	78.456	85.008	
		273.900	10933.735	78.449	86.208	
		274.000	11002.691	78.449	87.300	
		274.100	10999.511	78.434	87.820	
		274.200	10270.972	78.408	88.140	
		274.300	9622.508	78.383	88.120	
		274.400	9109.438	78.360	86.800	
		274.500	8550.763	78.350	84.260	
		274.600	8292.013	78.350	81.360	
		274.700	8421.173	78.350	77.380	
		274.800	9226.536	78.350	72.572	
		274.900	10005.636	78.350	68.504	
		275.000	9990.994	78.350	64.904	
		275.100	9527.844	78.350	61.304	
		275.200	8833.284	78.350	57.826	
		275.300	8044.538	78.350	54.548	
		275.400	7501.862	78.350	51.348	
		275.500	7553.894	78.350	48.240	
		275.600	8699.849	78.350	45.364	
		275.700	9311.086	78.350	42.688	
		275.800	8353.154	78.350	40.150	
		275.900	7309.737	78.378	37.712	
		276.000	6715.860	78.423	35.622	
		276.100	6425.321	78.443	33.784	
		276.200	6304.113	78.448	32.294	
		276.300	6863.360	78.449	31.170	
		276.400	7528.717	78.449	30.611	
		276.500	7604.648	78.449	30.941	
		276.600	7487.405	78.449	31.389	
		276.700	7464.359	78.449	31.941	
		276.800	7408.880	78.449	32.767	
		276.900	7405.854	78.449	33.478	
		277.000	7729.650	78.449	33.892	
		277.100	8157.884	78.449	34.704	
		277.200	8509.327	78.449	35.932	
		277.300	8886.130	78.449	37.360	
		277.400	9294.326	78.449	38.988	
		277.500	9785.546	78.449	40.880	
		277.600	10297.725	78.449	42.944	
		277.700	10557.857	78.449	45.108	
		277.800	10872.393	78.449	47.395	
		277.900	11089.342	78.449	49.630	
		278.000	11403.064	78.449	52.090	
		278.100	11835.922	78.449	54.040	
		278.200	12144.626	78.449	55.510	
		278.300	12061.618	78.420	56.715	
		278.400	11543.035	78.375	57.490	
		278.500	12005.818	78.356	57.527	
		278.600	13280.880	78.352	57.257	
		278.700	13814.806	78.326	56.991	
		278.800	13750.046	78.290	56.438	
		278.900	13328.323	78.269	56.266	
		279.000	13631.786	78.255	56.168	
		279.100	12855.396	78.250	56.562	
		279.200	11034.588	78.250	57.526	
		279.300	9956.063	78.236	58.771	
		279.400	9664.409	78.214	60.205	
		279.500	9900.700	78.188	62.442	
		279.600	10070.177	78.159	63.836	
		279.700	9954.821	78.142	64.502	
		279.800	9534.921	78.129	64.365	
		279.900	8763.635	78.100	63.865	
		280.000	8383.275	78.062	62.360	
		280.100	9660.642	78.050	60.476	
		280.200	10786.167	78.050	57.860	
		280.300	10857.044	78.050	54.860	
		280.400	10442.013	78.050	52.540	
		280.500	9719.036	78.050	50.540	
		280.600	9493.563	78.050	48.608	
		280.700	9704.793	78.050	47.048	
		280.800	9470.723	78.050	45.648	
		280.900	8734.476	78.050	43.889	
		281.000	7961.770	78.050	42.265	
		281.100	7195.595	78.050	40.765	
		281.200	6626.563	78.050	39.265	
		281.300	6833.223	78.050	38.041	
		281.400	7863.135	78.050	37.355	
		281.500	8727.438	78.050	36.855	
		281.600	8403.809	78.050	36.630	
		281.700	7861.573	78.050	36.810	
		281.800	7695.320	78.050	37.040	
		281.900	7476.415	78.067	37.030	
		282.000	7420.732	78.091	37.070	
		282.100	7520.579	78.116	37.030	
		282.200	7640.949	78.142	36.650	
		282.300	7599.557	78.150	36.010	
		282.400	7398.334	78.150	35.516	
		282.500	7240.392	78.150	35.542	
		282.600	7400.920	78.150	35.032	
		282.700	7696.219	78.150	34.658	
		282.800	7943.879	78.150	34.458	
		282.900	7949.838	78.150	33.903	
		283.000	7532.079	78.150	33.416	
		283.100	6898.325	78.150	32.796	
		283.200	6303.245	78.150	32.096	
		283.300	5574.251	78.150	31.252	
		283.400	4881.920	78.150	30.136	
		283.500	4543.242	78.118	28.432	
		283.600	4640.131	78.073	27.108	
		283.700	4887.164	78.057	26.008	
		283.800	5385.725	78.051	25.268	
		283.900	6563.243	78.050	25.392	
		284.000	7003.652	78.050	25.719	
		284.100	7267.855	78.025	27.041	
		284.200	7437.940	77.992	29.179	
		284.300	7533.789	77.971	31.625	
		284.400	7927.404	77.954	34.125	
		284.500	8544.527	77.931	37.209	
		284.600	8916.950	77.906	39.341	
		284.700	8780.628	77.864	40.910	
		284.800	8362.489	77.817	42.040	
		284.900	8083.058	77.785	42.374	
		285.000	7953.511	77.757	41.734	
		285.100	7936.275	77.737	41.352	
		285.200	8474.014	77.721	40.930	
		285.300	9049.431	77.692	40.504	
		285.400	8608.250	77.658	40.325	
		285.500	8545.067	77.643	40.750	
		285.600	8832.829	77.634	41.125	
		285.700	9175.500	77.601	41.650	
		285.800	9331.685	77.560	42.400	
		285.900	9416.466	77.550	43.125	
		286.000	9498.937	77.550	43.825	
		286.100	9496.841	77.515	44.450	
		286.200	9581.221	77.469	45.056	
		286.300	9843.820	77.455	45.656	
		286.400	10023.252	77.451	46.180	
		286.500	10113.788	77.450	46.604	
		286.600	10104.075	77.450	46.852	
		286.700	10078.157	77.450	47.128	
		286.800	10033.379	77.450	47.352	
		286.900	9979.909	77.427	47.349	
		287.000	9943.656	77.397	47.282	
		287.100	9899.753	77.375	47.215	
		287.200	9846.251	77.354	47.123	
		287.300	9792.344	77.350	46.946	
		287.400	9778.547	77.350	46.823	
		287.500	9843.135	77.350	46.723	
		287.600	9917.500	77.350	46.623	
		287.700	9931.898	77.350	46.366	
		287.800	9435.319	77.350	45.910	
		287.900	8651.391	77.350	45.098	
		288.000	8410.065	77.350	43.808	
		288.100	8191.242	77.350	42.408	
		288.200	7864.053	77.350	40.384	
		288.300	7527.847	77.350	38.028	
		288.400	7107.693	77.350	36.018	
		288.500	6683.389	77.350	34.099	
		288.600	6297.964	77.350	32.515	
		288.700	6258.308	77.350	31.568	
		288.800	6663.431	77.350	31.005	
		288.900	7118.565	77.350	30.742	
		289.000	7266.338	77.350	30.858	
		289.100	7384.604	77.316	31.216	
		289.200	7496.767	77.273	31.860	
		289.300	7319.511	77.258	32.480	
		289.400	7100.906	77.251	32.920	
		289.500	6807.127	77.249	33.160	
		289.600	6443.030	77.249	32.720	
		289.700	6182.389	77.249	31.720	
		289.800	6139.494	77.249	30.460	
		289.900	5892.091	77.227	29.320	
		290.000	5876.156	77.199	28.452	
		290.100	6615.657	77.176	28.219	
		290.200	7050.306	77.154	28.686	
		290.300	7365.099	77.149	29.691	
		290.400	7959.015	77.149	31.196	
		290.500	8722.921	77.149	33.201	
		290.600	9199.261	77.149	35.220	
		290.700	9492.237	77.140	37.220	
		290.800	9259.800	77.128	38.830	
		290.900	9137.543	77.095	39.920	
		291.000	9354.148	77.056	40.838	
		291.100	9464.155	77.047	41.328	
		291.200	9434.760	77.044	41.646	
		291.300	9577.520	77.007	42.192	
		291.400	9670.291	76.961	43.202	
		291.500	9645.512	76.952	44.396	
		291.600	9685.571	76.950	45.430	
		291.700	9881.763	76.950	46.347	
		291.800	9940.989	76.950	46.998	
		291.900	10061.778	76.919	47.266	
		292.000	10264.723	76.881	47.383	
		292.100	10259.663	76.864	47.317	
		292.200	10315.150	76.852	47.217	
		292.300	10137.273	76.824	47.116	
		292.400	10083.203	76.794	47.352	
		292.500	10095.358	76.773	47.568	
		292.600	10085.679	76.753	47.852	
		292.700	10238.882	76.750	47.984	
		292.800	10395.249	76.750	47.832	
		292.900	10532.034	76.750	47.380	
		293.000	10596.053	76.750	46.875	
		293.100	10654.347	76.738	47.055	
		293.200	10885.255	76.724	47.610	
		293.300	11219.437	76.691	48.635	
		293.400	11521.393	76.655	50.245	
		293.500	11793.649	76.650	52.200	
		293.600	11813.453	76.650	54.200	
		293.700	11219.630	76.650	56.455	
		293.800	9761.847	76.650	58.692	
		293.900	9772.145	76.650	60.720	
		294.000	10402.969	76.650	62.806	
		294.100	10621.161	76.650	64.046	
		294.200	10095.182	76.650	65.232	
		294.300	9753.314	76.650	65.830	
		294.400	9620.639	76.650	65.298	
		294.500	9171.602	76.650	63.910	
		294.600	9946.219	76.650	62.047	
		294.700	10365.321	76.650	58.929	
		294.800	10009.330	76.650	55.455	
		294.900	9543.687	76.650	52.564	
		295.000	9192.669	76.650	49.329	
		295.100	8911.829	76.650	46.551	
		295.200	8660.210	76.650	43.851	
		295.300	8330.051	76.670	41.300	
		295.400	7873.750	76.693	38.888	
		295.500	7406.677	76.720	36.488	
		295.600	6944.487	76.747	34.880	
		295.700	6502.344	76.750	33.644	
		295.800	6454.901	76.750	32.884	
		295.900	7145.530	76.750	32.976	
		296.000	7886.773	76.750	33.616	
		296.100	7342.882	76.750	33.967	
		296.200	7706.964	76.750	34.890	
		296.300	8089.836	76.750	35.623	
		296.400	7901.071	76.750	35.611	
		296.500	7623.504	76.750	35.511	
		296.600	7671.504	76.750	35.678	
		296.700	8027.822	76.750	35.878	
		296.800	8434.258	76.750	36.434	
		296.900	8801.624	76.750	37.850	
		297.000	9108.621	76.750	39.440	
		297.100	9351.896	76.750	41.130	
		297.200	9960.086	76.750	43.190	
		297.300	10796.767	76.750	45.020	
		297.400	11310.354	76.750	46.370	
		297.500	11380.907	76.750	48.210	
		297.600	11257.130	76.750	48.855	
		297.700	11172.862	76.723	49.355	
		297.800	10981.735	76.693	49.582	
		297.900	10664.905	76.672	49.418	
		298.000	10462.099	76.652	48.763	
		298.100	10249.591	76.650	48.336	
		298.200	10466.904	76.650	47.754	
		298.300	10636.786	76.650	47.245	
		298.400	11030.689	76.650	46.924	
		298.500	11417.197	76.638	46.440	
		298.600	10211.623	76.625	46.584	
		298.700	9270.747	76.590	46.968	
		298.800	9154.782	76.553	47.736	
		298.900	9363.742	76.550	48.904	
		299.000	9784.395	76.550	50.288	
		299.100	10099.773	76.550	52.074	
		299.200	10191.433	76.550	54.246	
		299.300	10154.571	76.550	56.539	
		299.400	10208.559	76.550	58.839	
		299.500	10382.146	76.511	61.325	
		299.600	10590.955	76.470	63.639	
		299.700	10777.396	76.459	66.311	
		299.800	10949.411	76.450	68.360	
		299.900	11003.001	76.450	69.346	
		300.000	10493.351	76.450	70.152	
		300.100	9928.950	76.450	69.354	
		300.200	9408.361	76.450	67.326	
		300.300	8470.460	76.450	64.944	
		300.400	7842.494	76.450	62.450	
		300.500	7412.179	76.450	58.446	
		300.600	7158.760	76.450	56.038	
		300.700	6561.713	76.450	54.000	
		300.800	5784.637	76.450	52.095	
		300.900	5572.018	76.450	50.100	
		301.000	6425.074	76.450	48.100	
		301.100	7634.179	76.450	46.385	
		301.200	8391.215	76.450	44.305	
		301.300	8620.360	76.450	42.680	
		301.400	8579.947	76.450	42.024	
		301.500	9136.326	76.450	41.616	
		301.600	9965.656	76.450	41.792	
		301.700	9984.595	76.452	43.048	
		301.800	10374.944	76.454	44.444	
		301.900	10588.056	76.498	45.652	
		302.000	10926.149	76.544	48.196	
		302.100	11299.084	76.548	49.548	
		302.200	11591.720	76.550	50.861	
		302.300	11790.632	76.550	52.161	
		302.400	11867.812	76.550	53.364	
		302.500	10914.642	76.550	54.564	
		302.600	9390.221	76.550	55.473	
		302.700	9015.036	76.550	56.567	
		302.800	9033.631	76.550	57.279	
		302.900	8766.648	76.550	57.397	
		303.000	8269.748	76.550	57.204	
		303.100	7861.724	76.550	56.416	
		303.200	7193.127	76.550	55.028	
		303.300	6474.316	76.550	53.236	
		303.400	6765.095	76.550	51.436	
		303.500	8167.457	76.550	48.852	
		303.600	9091.463	76.550	46.644	
		303.700	9481.428	76.550	44.323	
		303.800	9230.936	76.550	42.023	
		303.900	8552.432	76.550	39.822	
		304.000	8097.321	76.550	37.820	
		304.100	7594.086	76.550	35.622	
		304.200	7054.172	76.550	33.521	
		304.300	6336.240	76.550	31.421	
		304.400	5591.620	76.550	29.519	
		304.500	4925.263	76.550	27.500	
		304.600	4566.367	76.550	26.300	
		304.700	4215.852	76.550	25.300	
		304.800	4581.840	76.550	24.900	
		304.900	6163.563	76.550	25.400	
		305.000	8027.461	76.550	25.900	
		305.100	9039.248	76.550	27.300	
		305.200	9473.193	76.549	29.120	
		305.300	9951.748	76.517	31.123	
		305.400	10550.775	76.485	33.426	
		305.500	10880.197	76.467	36.028	
		305.600	11120.479	76.450	38.830	
		305.700	11277.137	76.450	41.831	
		305.800	11432.954	76.450	44.930	
		305.900	11610.088	76.450	47.933	
		306.000	11715.722	76.450	51.246	
		306.100	12192.375	76.450	53.544	
		306.200	12300.203	76.450	55.730	
		306.300	11896.464	76.450	57.204	
		306.400	10808.986	76.450	57.388	
		306.500	9595.400	76.450	56.788	
		306.600	9019.485	76.450	56.140	
		306.700	8730.537	76.450	53.138	
		306.800	8477.988	76.450	50.031	
		306.900	8304.044	76.441	47.704	
		307.000	8211.508	76.431	44.534	
		307.100	8141.042	76.390	42.346	
		307.200	8015.273	76.350	40.555	
		307.300	7886.586	76.350	39.076	
		307.400	8177.593	76.350	38.303	
		307.500	8927.513	76.350	38.392	
		307.600	8636.321	76.350	38.224	
		307.700	8325.298	76.350	38.820	
		307.800	8392.452	76.350	39.292	
		307.900	8276.514	76.350	39.104	
		308.000	8045.952	76.350	39.192	
		308.100	7981.617	76.350	38.976	
		308.200	8159.157	76.350	38.380	
		308.300	8004.229	76.350	37.885	
		308.400	8033.392	76.351	37.570	
		308.500	8287.747	76.377	37.005	
		308.600	8327.967	76.403	37.115	
		308.700	8100.551	76.427	37.425	
		308.800	8657.152	76.450	37.930	
		308.900	8920.436	76.450	38.545	
		309.000	9207.542	76.450	39.472	
		309.100	9571.670	76.450	40.684	
		309.200	10116.286	76.450	42.090	
		309.300	10358.371	76.450	43.614	
		309.400	10585.460	76.450	45.514	
		309.500	10622.416	76.450	47.414	
		309.600	10892.890	76.450	49.326	
		309.700	10762.936	76.450	51.420	
		309.800	9818.324	76.450	53.426	
		309.900	9105.922	76.450	55.212	
		310.000	9252.936	76.450	56.826	
		310.100	9538.028	76.450	58.647	
		310.200	9694.021	76.450	60.726	
		310.300	10000.676	76.450	62.484	
		310.400	10170.694	76.450	63.719	
		310.500	10052.690	76.450	65.293	
		310.600	9519.714	76.450	65.128	
		310.700	9095.279	76.450	64.188	
		310.800	8852.983	76.450	62.748	
		310.900	8445.534	76.450	60.712	
		311.000	7865.231	76.450	57.232	
		311.100	7078.831	76.450	55.100	
		311.200	6577.571	76.450	52.648	
		311.300	6524.512	76.450	50.846	
		311.400	7151.270	76.450	50.309	
		311.500	8171.754	76.450	50.382	
		311.600	8264.998	76.452	50.227	
		311.700	7925.008	76.479	50.482	
		311.800	7660.416	76.503	50.210	
		311.900	7087.773	76.503	49.246	
		312.000	6351.896	76.502	48.529	
		312.100	5640.477	76.497	46.500	
		312.200	4954.018	76.495	43.520	
		312.300	4516.314	76.524	40.780	
		312.400	4305.039	76.550	38.550	
		312.500	4137.646	76.550	36.090	
		312.600	4092.860	76.550	34.000	
		312.700	4089.743	76.550	31.990	
		312.800	4110.632	76.550	29.890	
		312.900	4212.645	76.550	27.736	
		313.000	4372.601	76.550	25.391	
		313.100	4194.062	76.550	23.491	
		313.200	3896.606	76.550	21.624	
		313.300	3920.847	76.550	20.079	
		313.400	4188.380	76.550	19.056	
		313.500	4190.744	76.550	18.678	
		313.600	4604.594	76.550	18.512	
		313.700	4638.051	76.550	18.648	
		313.800	4734.717	76.550	19.060	
		313.900	4946.935	76.550	19.596	
		314.000	5295.257	76.550	20.444	
		314.100	5656.406	76.550	21.716	
		314.200	5949.927	76.550	23.540	
		314.300	6238.282	76.550	25.552	
		314.400	6611.101	76.550	27.699	
		314.500	6959.739	76.550	29.973	
		314.600	7151.601	76.550	32.099	
		314.700	7480.586	76.550	34.347	
		314.800	8021.802	76.550	36.143	
		314.900	8353.971	76.550	37.269	
		315.000	7963.999	76.546	38.374	
		315.100	7626.580	76.516	38.158	
		315.200	7023.660	76.488	37.802	
		315.300	6777.062	76.468	37.004	
		315.400	6490.018	76.450	35.506	
		315.500	5909.877	76.450	33.434	
		315.600	5508.872	76.450	31.478	
		315.700	5311.246	76.450	29.248	
		315.800	5387.397	76.448	27.588	
		315.900	5972.069	76.434	26.780	
		316.000	6570.298	76.417	26.205	
		316.100	6716.844	76.381	26.965	
		316.200	6742.708	76.349	28.140	
		316.300	6930.022	76.342	29.770	
		316.400	7100.477	76.330	31.570	
		316.500	7152.592	76.286	33.370	
		316.600	7590.918	76.250	35.155	
		316.700	8107.089	76.250	36.824	
		316.800	8311.347	76.250	38.192	
		316.900	8476.000	76.250	39.392	
		317.000	8703.234	76.243	40.512	
		317.100	8897.787	76.200	41.212	
		317.200	9061.375	76.163	41.864	
		317.300	9184.775	76.156	42.232	
		317.400	9213.994	76.150	42.417	
		317.500	9094.028	76.150	42.534	
		317.600	9027.768	76.144	42.734	
		317.700	9221.288	76.112	42.951	
		317.800	9519.606	76.082	43.268	
		317.900	9665.353	76.064	43.685	
		318.000	9716.200	76.050	44.168	
		318.100	9705.794	76.050	44.619	
		318.200	9781.038	76.050	45.272	
		318.300	9903.140	76.050	45.582	
		318.400	9748.729	76.050	45.428	
		318.500	9090.766	76.050	45.010	
		318.600	8515.294	76.050	44.474	
		318.700	8455.325	76.050	43.792	
		318.800	9281.127	76.050	43.264	
		318.900	9715.116	76.050	43.028	
		319.000	9371.713	76.050	42.776	
		319.100	9527.640	76.050	43.233	
		319.200	9713.066	76.050	43.933	
		319.300	9849.669	76.050	44.633	
		319.400	10017.776	76.058	45.371	
		319.500	10180.391	76.103	46.138	
		319.600	10254.746	76.140	46.338	
		319.700	9984.801	76.145	46.440	
		319.800	9255.145	76.150	46.140	
		319.900	8695.781	76.150	45.720	
		320.000	8470.344	76.150	44.820	
		320.100	8086.131	76.150	43.780	
		320.200	7721.475	76.150	42.140	
		320.300	7713.437	76.150	40.400	
		320.400	7576.626	76.150	38.820	
		320.500	7248.397	76.150	36.964	
		320.600	6966.814	76.150	35.469	
		320.700	6821.251	76.150	34.390	
		320.800	6951.745	76.150	33.390	
		320.900	7285.581	76.150	32.621	
		321.000	7364.729	76.154	32.637	
		321.100	7251.922	76.173	32.463	
		321.200	7291.108	76.195	32.766	
		321.300	7367.865	76.226	33.033	
		321.400	7410.297	76.250	33.183	
		321.500	7271.010	76.250	33.234	
		321.600	6873.706	76.250	32.890	
		321.700	6478.013	76.250	32.324	
		321.800	6077.694	76.250	31.480	
		321.900	5775.306	76.250	30.392	
		322.000	5800.553	76.250	29.208	
		322.100	6102.437	76.250	28.762	
		322.200	6853.637	76.250	28.346	
		322.300	7073.059	76.250	28.822	
		322.400	7129.681	76.239	30.245	
		322.500	7236.142	76.193	31.814	
		322.600	7411.543	76.156	33.729	
		322.700	7986.057	76.152	35.937	
		322.800	8557.157	76.150	37.736	
		322.900	9044.604	76.150	39.232	
		323.000	9506.604	76.150	40.768	
		323.100	9735.456	76.150	41.444	
		323.200	9750.954	76.150	42.020	
		323.300	9719.518	76.150	42.496	
		323.400	9922.777	76.150	42.848	
		323.500	10341.806	76.150	43.225	
		323.600	10703.550	76.150	44.175	
		323.700	10804.127	76.150	45.350	
		323.800	10394.243	76.145	46.875	
		323.900	9443.061	76.125	48.800	
		324.000	8992.344	76.103	50.875	
		324.100	9311.107	76.073	53.175	
		324.200	9661.461	76.050	55.475	
		324.300	9997.996	76.050	57.876	
		324.400	10398.852	76.050	60.580	
		324.500	10745.910	76.050	63.372	
		324.600	10869.594	76.050	65.546	
		324.700	10800.819	76.050	67.620	
		324.800	9997.188	76.050	69.568	
		324.900	9374.521	76.050	71.212	
		325.000	10190.638	76.050	72.559	
		325.100	10780.511	76.050	74.178	
		325.200	11068.085	76.050	75.605	
		325.300	11261.516	76.050	77.186	
		325.400	11390.852	76.050	79.148	
		325.500	11471.466	76.050	81.278	
		325.600	11516.704	76.050	82.678	
		325.700	11386.869	76.050	83.916	
		325.800	10699.009	76.050	84.360	
		325.900	9965.261	76.050	83.776	
		326.000	9743.992	76.050	82.780	
		326.100	9542.262	76.050	80.888	
		326.200	9721.211	76.050	77.932	
		326.300	10655.512	76.050	75.028	
		326.400	11517.809	76.055	72.544	
		326.500	10813.246	76.076	69.760	
		326.600	10118.959	76.099	66.730	
		326.700	10681.820	76.129	63.701	
		326.800	11083.177	76.150	60.601	
		326.900	10550.664	76.150	57.385	
		327.000	9786.292	76.153	54.117	
		327.100	9326.673	76.166	51.417	
		327.200	8942.563	76.186	48.833	
		327.300	8851.139	76.224	46.750	
		327.400	9129.059	76.250	45.520	
		327.500	9678.342	76.250	44.950	
		327.600	10131.733	76.251	44.660	
		327.700	10103.688	76.255	44.950	
		327.800	9985.682	76.271	45.420	
		327.900	10290.142	76.315	46.000	
		328.000	10728.576	76.346	46.970	
		328.100	11072.869	76.348	47.941	
		328.200	11519.762	76.362	49.072	
		328.300	12135.076	76.402	50.334	
		328.400	12629.808	76.432	51.920	
		328.500	13100.068	76.443	53.796	
		328.600	13584.022	76.450	55.427	
		328.700	13918.635	76.450	57.127	
		328.800	13663.439	76.459	58.765	
		328.900	13351.766	76.489	60.280	
		329.000	13653.926	76.516	61.556	
		329.100	13591.843	76.536	62.292	
		329.200	13325.907	76.550	62.732	
		329.300	12066.916	76.550	62.576	
		329.400	11391.219	76.550	61.684	
		329.500	10936.404	76.550	60.224	
		329.600	10548.092	76.550	57.944	
		329.700	10132.107	76.550	54.711	
		329.800	9804.982	76.550	51.675	
		329.900	9467.532	76.550	49.043	
		330.000	9121.141	76.550	46.308	
		330.100	8715.117	76.550	43.941	
		330.200	8371.478	76.550	41.707	
		330.300	8114.594	76.550	39.640	
		330.400	7787.989	76.550	37.722	
		330.500	7372.485	76.550	36.022	
		330.600	7017.504	76.550	34.390	
		330.700	6834.863	76.550	33.060	
		330.800	6723.790	76.550	32.230	
		330.900	6843.777	76.550	31.934	
		331.000	7007.649	76.550	32.034	
		331.100	6972.284	76.550	32.170	
		331.200	6797.327	76.550	32.405	
		331.300	7052.079	76.550	32.775	
		331.400	7379.857	76.550	33.450	
		331.500	7537.288	76.550	34.380	
		331.600	7779.017	76.550	35.390	
		331.700	8138.762	76.550	36.685	
		331.800	8166.893	76.550	37.505	
		331.900	8137.683	76.550	37.808	
		332.000	8089.011	76.550	37.964	
		332.100	8080.062	76.550	37.864	
		332.200	8454.380	76.550	37.890	
		332.300	9176.780	76.550	38.140	
		332.400	9918.334	76.550	38.588	
		332.500	10789.287	76.550	39.532	
		332.600	11687.226	76.550	40.840	
		332.700	12419.641	76.550	42.466	
		332.800	12881.102	76.550	44.340	
		332.900	13042.207	76.550	46.377	
		333.000	13065.866	76.550	48.588	
		333.100	12983.825	76.550	51.136	
		333.200	12795.388	76.550	53.825	
		333.300	12672.052	76.550	55.992	
		333.400	12579.454	76.550	57.722	
		333.500	11996.649	76.550	58.862	
		333.600	11184.310	76.550	58.458	
		333.700	10659.423	76.550	57.368	
		333.800	10258.357	76.550	55.778	
		333.900	9908.883	76.550	53.042	
		334.000	9643.114	76.550	49.664	
		334.100	9402.550	76.550	47.464	
		334.200	9048.693	76.550	45.281	
		334.300	8663.467	76.550	43.298	
		334.400	8398.106	76.550	41.615	
		334.500	8184.058	76.550	40.349	
		334.600	8518.799	76.559	39.683	
		334.700	9171.152	76.583	39.539	
		334.800	9074.757	76.607	39.717	
		334.900	8758.893	76.634	40.251	
		335.000	8661.569	76.650	40.840	
		335.100	8710.267	76.650	40.860	
		335.200	8728.749	76.650	40.760	
		335.300	8675.796	76.650	40.420	
		335.400	8592.110	76.650	39.600	
		335.500	8571.779	76.650	39.040	
		335.600	8686.412	76.652	39.260	
		335.700	8819.956	76.658	39.787	
		335.800	8848.518	76.680	40.405	
		335.900	8981.924	76.724	40.987	
		336.000	9234.215	76.750	41.482	
		336.100	9322.862	76.750	41.805	
		336.200	9432.795	76.750	42.305	
		336.300	9651.167	76.750	42.805	
		336.400	9851.745	76.750	43.387	
		336.500	10019.319	76.750	44.346	
		336.600	10248.141	76.750	45.688	
		336.700	10559.241	76.750	47.088	
		336.800	11012.891	76.762	48.488	
		336.900	11630.523	76.790	49.888	
		337.000	12174.061	76.815	51.246	
		337.100	12636.022	76.837	52.714	
		337.200	12479.623	76.850	54.560	
		337.300	11368.245	76.850	56.560	
		337.400	10583.399	76.850	58.603	
		337.500	10678.724	76.850	60.789	
		337.600	10727.488	76.850	63.132	
		337.700	10844.734	76.850	65.489	
		337.800	11077.520	76.850	67.832	
		337.900	11320.510	76.850	70.447	
		338.000	11592.115	76.850	72.672	
		338.100	11963.313	76.850	73.884	
		338.200	11654.877	76.850	74.632	
		338.300	10610.811	76.850	74.272	
		338.400	10168.486	76.850	72.676	
		338.500	10563.634	76.850	70.400	
		338.600	11308.772	76.850	66.932	
		338.700	11503.160	76.850	62.232	
		338.800	10982.650	76.850	58.250	
		338.900	10495.325	76.850	55.160	
		339.000	10240.101	76.850	52.140	
		339.100	9966.770	76.850	49.520	
		339.200	9608.646	76.850	47.210	
		339.300	9226.948	76.850	45.055	
		339.400	8842.940	76.850	43.180	
		339.500	8504.793	76.850	41.426	
		339.600	8223.178	76.850	39.664	
		339.700	7918.008	76.850	38.156	
		339.800	7518.778	76.859	36.802	
		339.900	7015.012	76.879	35.870	
		340.000	6939.640	76.904	35.416	
		340.100	7929.342	76.934	35.154	
		340.200	9056.526	76.950	35.192	
		340.300	9232.298	76.950	35.488	
		340.400	8971.795	76.950	36.170	
		340.500	8849.970	76.950	36.888	
		340.600	8865.970	76.950	37.429	
		340.700	8786.869	76.950	38.082	
		340.800	8743.500	76.950	38.494	
		340.900	8899.355	76.950	38.647	
		341.000	9005.275	76.950	38.747	
		341.100	8980.595	76.950	38.848	
		341.200	8868.542	76.971	38.948	
		341.300	8832.919	77.015	39.096	
		341.400	8992.089	77.041	39.104	
		341.500	9349.430	77.046	39.432	
		341.600	9906.333	77.049	40.284	
		341.700	10536.581	77.049	41.276	
		341.800	11212.670	77.049	42.929	
		341.900	11764.735	77.049	45.225	
		342.000	12055.919	77.049	47.627	
		342.100	11954.878	77.049	50.025	
		342.200	11159.100	77.049	52.525	
		342.300	10309.852	77.049	54.976	
		342.400	10220.664	77.049	57.278	
		342.500	10435.153	77.049	59.576	
		342.600	10558.434	77.049	62.050	
		342.700	10795.262	77.049	64.500	
		342.800	10986.744	77.049	66.850	
		342.900	11072.171	77.049	69.400	
		343.000	11514.989	77.049	71.800	
		343.100	11890.326	77.049	73.600	
		343.200	10875.530	77.047	75.200	
		343.300	10179.277	77.041	76.816	
		343.400	10728.438	77.016	78.161	
		343.500	11052.689	76.972	79.516	
		343.600	11217.131	76.950	81.218	
		343.700	11313.844	76.950	83.018	
		343.800	11370.407	76.950	84.869	
		343.900	11454.497	76.950	86.973	
		344.000	11601.952	76.950	88.865	
		344.100	11787.011	76.950	90.380	
		344.200	11864.086	76.950	91.516	
		344.300	11542.128	76.950	91.744	
		344.400	10889.762	76.950	91.392	
		344.500	10317.479	76.950	90.264	
		344.600	9984.164	76.950	87.684	
		344.700	10219.110	76.950	84.228	
		344.800	11511.766	76.950	80.576	
		344.900	12279.902	76.950	76.097	
		345.000	11560.285	76.960	71.527	
		345.100	10400.540	76.980	67.427	
		345.200	9274.115	77.005	63.327	
		345.300	8209.071	77.035	59.386	
		345.400	7226.729	77.056	55.427	
		345.500	6488.721	77.069	51.751	
		345.600	6060.820	77.095	48.526	
		345.700	5807.400	77.132	45.696	
		345.800	5745.997	77.153	43.366	
		345.900	5890.729	77.160	41.752	
		346.000	6115.566	77.187	40.444	
		346.100	6239.245	77.230	39.476	
		346.200	6035.065	77.250	38.876	
		346.300	5538.576	77.251	38.006	
		346.400	5271.265	77.277	37.005	
		346.500	5252.826	77.323	36.215	
		346.600	5446.243	77.346	35.515	
		346.700	5796.264	77.348	35.035	
		346.800	5991.766	77.372	35.010	
		346.900	6047.921	77.412	35.210	
		347.000	6035.618	77.435	35.685	
		347.100	6012.345	77.445	36.504	
		347.200	6125.963	77.468	37.516	
		347.300	6355.407	77.501	38.616	
		347.400	6755.196	77.525	39.660	
		347.500	6899.408	77.542	40.884	
		347.600	6994.604	77.550	42.228	
		347.700	7042.099	77.550	43.640	
		347.800	7124.804	77.550	45.196	
		347.900	7408.530	77.550	46.869	
		348.000	7729.055	77.550	48.626	
		348.100	8063.735	77.550	50.426	
		348.200	8420.085	77.550	52.283	
		348.300	8830.837	77.550	54.183	
		348.400	9112.604	77.550	56.140	
		348.500	9424.342	77.550	58.083	
		348.600	9804.102	77.547	60.040	
		348.700	10057.083	77.542	62.060	
		348.800	10245.699	77.514	64.002	
		348.900	10531.011	77.469	65.960	
		349.000	10835.815	77.450	67.844	
		349.100	11091.470	77.450	69.818	
		349.200	11312.829	77.426	71.686	
		349.300	11349.952	77.385	72.922	
		349.400	10991.911	77.362	73.241	
		349.500	10348.440	77.353	72.728	
		349.600	9946.233	77.350	71.869	
		349.700	9775.521	77.350	70.969	
		349.800	9697.727	77.332	70.069	
		349.900	9799.861	77.302	69.228	
		350.000	9811.406	77.278	68.369	
		350.100	9332.718	77.258	67.469	
		350.200	8529.100	77.249	66.020	
		350.300	7994.408	77.249	63.380	
		350.400	7336.660	77.238	60.240	
		350.500	6493.275	77.219	57.140	
		350.600	5926.563	77.193	53.980	
		350.700	5680.708	77.162	50.840	
		350.800	5569.429	77.149	47.680	
		350.900	5646.408	77.149	44.540	
		351.000	5805.969	77.157	42.263	
		351.100	5851.985	77.168	40.563	
		351.200	6037.792	77.196	39.290	
		351.300	6315.387	77.235	38.839	
		351.400	6233.488	77.249	38.861	
		351.500	6245.390	77.249	39.083	
		351.600	6145.281	77.249	39.505	
		351.700	6051.682	77.249	39.886	
		351.800	6074.892	77.249	39.876	
		351.900	5861.557	77.249	39.676	
		352.000	5476.537	77.249	38.980	
		352.100	5384.268	77.249	37.980	
		352.200	5367.552	77.249	36.794	
		352.300	5180.071	77.249	35.246	
		352.400	5045.212	77.249	33.794	
		352.500	4941.398	77.249	32.355	
		352.600	4825.099	77.249	30.981	
		352.700	4696.740	77.249	29.807	
		352.800	4571.258	77.249	28.833	
		352.900	4395.270	77.249	27.744	
		353.000	4215.823	77.273	26.985	
		353.100	4177.364	77.309	26.296	
		353.200	4513.895	77.312	25.680	
		353.300	4674.165	77.293	25.692	
		353.400	4754.626	77.275	26.120	
		353.500	4877.683	77.256	27.004	
		353.600	4930.593	77.249	28.360	
		353.700	4992.959	77.249	29.924	
		353.800	5165.161	77.238	31.332	
		353.900	6015.259	77.219	32.632	
		354.000	8052.111	77.192	34.075	
		354.100	10262.354	77.161	35.380	
		354.200	10790.223	77.142	36.450	
		354.300	9425.471	77.131	37.385	
		354.400	8028.149	77.102	38.220	
		354.500	7822.224	77.063	38.890	
		354.600	8329.857	77.047	39.685	
		354.700	8629.892	77.043	40.390	
		354.800	8415.602	77.011	40.402	
		354.900	8193.275	76.966	40.102	
		355.000	8049.222	76.950	40.132	
		355.100	8382.837	76.950	40.332	
		355.200	9033.243	76.922	40.730	
		355.300	9008.968	76.880	41.032	
		355.400	8788.975	76.860	41.364	
		355.500	8777.945	76.853	41.768	
		355.600	8901.090	76.828	42.302	
		355.700	9042.484	76.794	42.902	
		355.800	9263.418	76.772	43.368	
		355.900	9503.854	76.755	43.701	
		356.000	9648.139	76.732	44.068	
		356.100	9754.608	76.704	44.602	
		356.200	9817.422	76.680	45.135	
		356.300	9741.903	76.657	45.504	
		356.400	9569.151	76.650	45.736	
		356.500	9397.638	76.650	45.732	
		356.600	9444.418	76.650	45.632	
		356.700	9507.138	76.650	45.396	
		356.800	9372.355	76.650	45.096	
		356.900	9242.465	76.650	44.660	
		357.000	9313.583	76.650	44.432	
		357.100	9336.498	76.650	44.435	
		357.200	9324.468	76.650	44.485	
		357.300	9568.378	76.650	44.569	
		357.400	9711.979	76.650	44.669	
		357.500	9207.425	76.650	44.493	
		357.600	8592.227	76.650	43.986	
		357.700	8302.410	76.650	43.179	
		357.800	8129.349	76.650	42.060	
		357.900	7848.099	76.650	40.230	
		358.000	7363.567	76.650	38.340	
		358.100	6840.545	76.650	36.330	
		358.200	6427.492	76.650	34.370	
		358.300	6340.669	76.650	32.960	
		358.400	7003.618	76.650	32.880	
		358.500	8045.040	76.650	32.790	
		358.600	8208.568	76.650	32.842	
		358.700	7819.443	76.650	33.255	
		358.800	7338.272	76.650	33.542	
		358.900	6806.460	76.650	33.671	
		359.000	6636.550	76.650	33.771	
		359.100	6665.479	76.650	33.303	
		359.200	6527.611	76.650	32.319	
		359.300	6310.990	76.650	31.280	
		359.400	6012.216	76.650	30.064	
		359.500	5961.516	76.650	28.980	
		359.600	6672.019	76.650	28.556	
		359.700	7093.909	76.650	28.716	
		359.800	7299.068	76.650	29.160	
		359.900	7677.719	76.650	30.308	
		360.000	8004.964	76.650	31.996	
		360.100	8135.951	76.650	34.033	
		360.200	8185.610	76.650	36.133	
		360.300	8375.185	76.650	38.087	
		360.400	8802.303	76.650	39.841	
		360.500	9293.884	76.650	41.176	
		360.600	9817.250	76.650	42.522	
		360.700	10105.867	76.650	43.776	
		360.800	9680.327	76.620	44.684	
		360.900	8300.953	76.580	45.640	
		361.000	7406.205	76.562	46.566	
		361.100	7176.322	76.552	47.170	
		361.200	7165.151	76.550	47.596	
		361.300	7245.771	76.550	47.848	
		361.400	7235.490	76.550	47.678	
		361.500	7350.913	76.550	47.378	
		361.600	7328.042	76.550	47.000	
		361.700	7526.994	76.550	46.750	
		361.800	7571.533	76.532	46.625	
		361.900	7493.415	76.509	46.825	
		362.000	7530.755	76.483	47.200	
		362.100	7495.349	76.456	47.600	
		362.200	7493.307	76.450	47.850	
		362.300	7721.700	76.450	47.975	
		362.400	7845.984	76.450	47.924	
		362.500	8068.216	76.450	48.052	
		362.600	8411.398	76.450	48.480	
		362.700	8610.738	76.450	49.360	
		362.800	8870.872	76.450	50.816	
		362.900	9102.285	76.450	52.796	
		363.000	9316.918	76.450	55.048	
		363.100	9419.497	76.450	57.500	
		363.200	9637.258	76.450	60.102	
		363.300	10116.836	76.450	62.625	
		363.400	10606.805	76.450	65.356	
		363.500	10900.421	76.450	67.463	
		363.600	11185.600	76.450	69.440	
		363.700	11440.635	76.450	70.824	
		363.800	10885.012	76.450	71.023	
		363.900	9840.645	76.450	70.844	
		364.000	8889.350	76.450	69.630	
		364.100	7842.567	76.450	66.726	
		364.200	6994.501	76.450	63.348	
		364.300	6501.175	76.450	60.338	
		364.400	6292.817	76.450	56.580	
		364.500	6335.898	76.450	53.360	
		364.600	6119.378	76.450	50.438	
		364.700	5473.979	76.450	47.667	
		364.800	5543.861	76.468	45.046	
		364.900	5451.517	76.490	42.446	
		365.000	4993.518	76.517	40.399	
		365.100	4663.144	76.544	38.578	
		365.200	4782.083	76.550	37.094	
		365.300	5166.717	76.550	35.931	
		365.400	5998.471	76.550	34.740	
		365.500	7269.695	76.550	34.020	
		365.600	8118.797	76.550	33.740	
		365.700	8804.439	76.550	33.780	
		365.800	9755.193	76.555	34.120	
		365.900	10751.463	76.563	35.800	
		366.000	11479.442	76.598	37.400	
		366.100	11863.785	76.641	39.300	
		366.200	11956.693	76.650	41.401	
		366.300	11883.469	76.650	43.258	
		366.400	11737.222	76.650	44.815	
		366.500	11691.491	76.650	45.991	
		366.600	11905.021	76.650	47.253	
		366.700	11985.226	76.650	48.229	
		366.800	11568.907	76.650	48.346	
		366.900	10632.340	76.650	48.279	
		367.000	10276.452	76.650	48.212	
		367.100	10618.564	76.650	47.872	
		367.200	11063.313	76.650	47.472	
		367.300	11138.539	76.650	47.236	
		367.400	10546.200	76.650	46.954	
		367.500	10055.471	76.650	46.818	
		367.600	9601.065	76.631	46.882	
		367.700	8422.245	76.609	47.149	
		367.800	8489.666	76.582	47.366	
		367.900	8754.781	76.554	47.068	
		368.000	9164.995	76.550	47.747	
		368.100	9757.687	76.550	49.228	
		368.200	10291.555	76.550	51.077	
		368.300	10629.102	76.550	53.060	
		368.400	10816.920	76.550	55.309	
		368.500	10851.225	76.550	57.800	
		368.600	10845.206	76.550	60.300	
		368.700	10864.952	76.550	62.800	
		368.800	10862.296	76.550	65.132	
		368.900	10949.480	76.550	67.684	
		369.000	10967.593	76.550	68.940	
		369.100	10424.640	76.550	69.772	
		369.200	9956.379	76.550	69.985	
		369.300	9723.031	76.550	69.235	
		369.400	9435.280	76.514	67.315	
		369.500	9189.920	76.473	65.555	
		369.600	8970.703	76.492	63.005	
		369.700	8702.595	76.523	60.390	
		369.800	8322.884	76.537	58.470	
		369.900	8141.556	76.548	56.585	
		370.000	7918.262	76.550	55.096	
		370.100	7680.810	76.550	53.868	
		370.200	7294.125	76.550	52.668	
		370.300	6626.136	76.550	51.468	
		370.400	5982.830	76.550	50.354	
		370.500	5738.665	76.550	49.426	
		370.600	5845.848	76.550	48.612	
		370.700	6396.747	76.550	47.898	
		370.800	7327.834	76.567	47.452	
		370.900	7675.271	76.587	47.052	
		371.000	7464.326	76.616	46.913	
		371.100	7843.875	76.646	47.422	
		371.200	7867.709	76.660	48.283	
		371.300	8131.592	76.672	49.009	
		371.400	8262.934	76.707	50.492	
		371.500	8431.806	76.745	51.580	
		371.600	8566.450	76.750	52.844	
		371.700	8663.245	76.750	53.968	
		371.800	8549.516	76.750	54.452	
		371.900	8203.050	76.750	54.676	
		372.000	7825.275	76.750	54.348	
		372.100	7592.848	76.750	53.244	
		372.200	7488.291	76.750	51.780	
		372.300	7278.975	76.750	50.265	
		372.400	7090.329	76.750	48.053	
		372.500	6785.247	76.750	46.198	
		372.600	6338.247	76.750	44.487	
		372.700	5557.854	76.750	42.698	
		372.800	4734.942	76.750	40.898	
		372.900	4749.193	76.750	39.454	
		373.000	4872.318	76.750	38.054	
		373.100	5864.819	76.750	36.640	
		373.200	7563.668	76.750	35.690	
		373.300	9009.741	76.750	35.060	
		373.400	9715.758	76.750	34.640	
		373.500	10155.309	76.750	34.870	
		373.600	10503.933	76.750	35.710	
		373.700	10805.900	76.750	36.700	
		373.800	11005.612	76.734	37.528	
		373.900	11124.310	76.717	38.783	
		374.000	11370.827	76.685	39.628	
		374.100	11646.491	76.653	40.064	
		374.200	11977.895	76.650	40.555	
		374.300	12326.780	76.650	41.510	
		374.400	12623.671	76.643	42.328	
		374.500	12769.410	76.636	43.765	
		374.600	12728.635	76.596	45.280	
		374.700	12752.929	76.553	47.056	
		374.800	12808.822	76.550	49.408	
		374.900	12871.395	76.550	52.360	
		375.000	12885.131	76.550	54.624	
		375.100	12831.516	76.550	56.824	
		375.200	11959.608	76.508	58.380	
		375.300	10900.668	76.463	58.779	
		375.400	10160.290	76.455	59.172	
		375.500	9701.411	76.450	58.177	
		375.600	9382.844	76.450	55.868	
		375.700	9161.116	76.450	53.096	
		375.800	9010.949	76.450	50.668	
		375.900	8768.138	76.450	47.710	
		376.000	8186.409	76.450	45.082	
		376.100	7321.544	76.450	42.362	
		376.200	6619.981	76.420	39.850	
		376.300	6368.255	76.388	38.196	
		376.400	6735.425	76.369	36.972	
		376.500	7837.663	76.351	36.336	
		376.600	8222.619	76.373	36.112	
		376.700	7337.980	76.399	36.053	
		376.800	7389.515	76.423	36.003	
		376.900	7577.583	76.449	36.285	
		377.000	7786.582	76.450	36.395	
		377.100	7954.285	76.450	36.495	
		377.200	8025.237	76.450	36.690	
		377.300	8055.689	76.450	36.795	
		377.400	8316.201	76.458	36.990	
		377.500	8168.344	76.467	37.095	
		377.600	7858.010	76.507	37.148	
		377.700	7908.565	76.548	37.198	
		377.800	8321.343	76.550	37.776	
		377.900	8822.234	76.550	38.376	
		378.000	9206.326	76.550	39.456	
		378.100	9708.798	76.550	40.652	
		378.200	10349.275	76.550	42.140	
		378.300	11215.219	76.550	43.928	
		378.400	10955.876	76.586	45.940	
		378.500	10773.541	76.623	48.037	
		378.600	9681.895	76.637	49.943	
		378.700	8550.335	76.649	51.843	
		378.800	8826.775	76.650	54.131	
		378.900	9079.022	76.650	56.528	
		379.000	9555.148	76.674	58.637	
		379.100	10027.004	76.698	61.028	
		379.200	10526.605	76.724	63.060	
		379.300	10518.610	76.749	64.276	
		379.400	9924.536	76.750	65.770	
		379.500	9501.520	76.750	65.408	
		379.600	9292.422	76.750	65.008	
		379.700	9008.426	76.750	63.726	
		379.800	8435.963	76.750	61.936	
		379.900	7590.594	76.750	58.534	
		380.000	6601.778	76.750	56.421	
		380.100	5937.216	76.750	54.222	
		380.200	5728.482	76.750	52.418	
		380.300	5714.313	76.750	51.311	
		380.400	5931.630	76.750	50.409	
		380.500	6775.289	76.750	49.509	
		380.600	7826.520	76.750	48.906	
		380.700	7644.280	76.750	48.100	
		380.800	7090.462	76.750	47.000	
		380.900	6737.153	76.750	46.900	
		381.000	6113.490	76.750	45.400	
		381.100	5400.854	76.750	44.200	
		381.200	5278.787	76.750	42.600	
		381.300	5275.778	76.750	40.200	
		381.400	5135.354	76.750	36.573	
		381.500	4954.493	76.750	33.862	
		381.600	4761.438	76.790	30.064	
		381.700	4584.485	76.829	26.475	
		381.800	4549.256	76.840	23.977	
		381.900	4621.129	76.850	21.686	
		382.000	4618.972	76.850	20.299	
		382.100	4785.005	76.850	20.205	
		382.200	4857.734	76.850	20.714	
		382.300	5979.529	76.850	21.432	
		382.400	6898.609	76.850	23.028	
		382.500	7759.032	76.850	24.438	
		382.600	9027.252	76.850	26.340	
		382.700	9792.299	76.850	28.336	
		382.800	10033.929	76.850	30.146	
		382.900	9973.256	76.850	32.438	
		383.000	9884.522	76.850	34.363	
		383.100	9690.314	76.850	36.454	
		383.200	8957.329	76.850	38.227	
		383.300	8046.906	76.850	39.124	
		383.400	7623.874	76.850	39.879	
		383.500	7309.420	76.850	39.155	
		383.600	7011.614	76.850	37.649	
		383.700	6857.639	76.850	35.940	
		383.800	6988.828	76.850	34.444	
		383.900	7195.930	76.850	33.064	
		384.000	6817.193	76.850	32.176	
		384.100	6440.055	76.850	31.588	
		384.200	6878.966	76.850	31.302	
		384.300	7194.503	76.850	31.352	
		384.400	7235.662	76.850	31.412	
		384.500	7350.758	76.850	31.715	
		384.600	7514.314	76.850	32.025	
		384.700	7504.031	76.850	32.545	
		384.800	7533.914	76.850	33.440	
		384.900	7772.580	76.848	34.265	
		385.000	8015.361	76.815	35.560	
		385.100	8208.221	76.783	36.750	
		385.200	8253.406	76.766	37.760	
		385.300	8331.212	76.750	38.754	
		385.400	8590.825	76.750	39.618	
		385.500	8735.066	76.750	39.912	
		385.600	8747.360	76.750	40.106	
		385.700	8594.272	76.749	40.206	
		385.800	8632.973	76.732	40.312	
		385.900	8651.025	76.714	40.518	
		386.000	8950.235	76.681	40.849	
		386.100	9560.000	76.650	41.549	
		386.200	9720.150	76.650	42.249	
		386.300	9370.067	76.650	42.977	
		386.400	8206.522	76.650	44.063	
		386.500	7339.577	76.650	44.970	
		386.600	7355.836	76.650	45.963	
		386.700	7487.966	76.650	46.828	
		386.800	7467.806	76.650	47.224	
		386.900	7472.396	76.650	47.492	
		387.000	7396.534	76.650	47.360	
		387.100	7149.072	76.650	46.844	
		387.200	6866.674	76.650	46.144	
		387.300	6659.090	76.653	45.404	
		387.400	6578.284	76.696	44.260	
		387.500	6870.168	76.736	43.755	
		387.600	7069.783	76.743	43.282	
		387.700	6979.421	76.750	43.127	
		387.800	6961.945	76.750	43.436	
		387.900	6884.068	76.750	43.836	
		388.000	7112.494	76.750	44.272	
		388.100	7566.229	76.750	45.054	
		388.200	7153.969	76.750	45.618	
		388.300	7122.719	76.752	45.810	
		388.400	6922.039	76.776	45.870	
		388.500	6675.324	76.800	45.540	
		388.600	6609.455	76.826	44.910	
		388.700	6432.005	76.850	43.990	
		388.800	6112.265	76.850	42.830	
		388.900	5810.125	76.852	41.150	
		389.000	5666.610	76.868	39.710	
		389.100	5734.889	76.886	38.801	
		389.200	5941.995	76.920	37.879	
		389.300	5801.501	76.950	36.845	
		389.400	5128.072	76.950	36.290	
		389.500	5012.584	76.950	35.290	
		389.600	5047.152	76.950	34.301	
		389.700	4979.211	76.950	33.390	
		389.800	4811.207	76.950	32.368	
		389.900	4716.304	76.950	31.304	
		390.000	4525.508	76.950	30.504	
		390.100	4390.030	76.955	29.740	
		390.200	4657.600	76.997	29.276	
		390.300	4750.844	77.034	29.076	
		390.400	4836.309	77.042	28.948	
		390.500	4989.993	77.049	29.348	
		390.600	5027.110	77.049	29.778	
		390.700	4988.209	77.049	30.417	
		390.800	4832.173	77.049	31.252	
		390.900	4765.734	77.049	31.691	
		391.000	4879.279	77.049	32.365	
		391.100	5015.725	77.049	32.839	
		391.200	5168.870	77.049	33.178	
		391.300	5409.498	77.049	33.812	
		391.400	5710.138	77.049	34.584	
		391.500	5991.022	77.049	35.254	
		391.600	6345.144	77.049	36.354	
		391.700	6668.326	77.049	37.412	
		391.800	6833.140	77.049	38.268	
		391.900	7017.281	77.049	39.468	
		392.000	7107.534	77.049	40.696	
		392.100	7167.549	77.049	42.125	
		392.200	7160.317	77.049	43.670	
		392.300	7288.048	77.049	45.425	
		392.400	7587.275	77.049	47.015	
		392.500	8022.937	77.049	49.115	
		392.600	8680.824	77.049	51.245	
		392.700	9168.387	77.049	53.560	
		392.800	9465.077	77.049	56.005	
		392.900	9789.956	77.043	58.700	
		393.000	10148.320	77.000	61.248	
		393.100	10488.829	76.964	64.032	
		393.200	10771.115	76.956	66.684	
		393.300	11011.761	76.950	69.100	
		393.400	11407.174	76.950	71.504	
		393.500	11671.631	76.950	73.356	
		393.600	11747.896	76.950	74.972	
		393.700	10300.941	76.950	76.555	
		393.800	10824.271	76.950	77.987	
		393.900	11227.450	76.950	79.155	
		394.000	11390.703	76.950	80.672	
		394.100	11495.107	76.950	82.204	
		394.200	11564.644	76.950	83.319	
		394.300	11415.441	76.950	84.087	
		394.400	10559.288	76.950	84.802	
		394.500	9803.620	76.953	83.576	
		394.600	9524.059	76.967	81.686	
		394.700	8846.578	76.985	79.206	
		394.800	8199.921	77.021	75.402	
		394.900	8034.020	77.049	69.788	
		395.000	8290.117	77.049	66.424	
		395.100	8682.780	77.049	63.260	
		395.200	8816.827	77.049	60.344	
		395.300	8567.235	77.050	58.039	
		395.400	8336.684	77.053	56.139	
		395.500	8101.078	77.065	54.334	
		395.600	7867.694	77.110	52.953	
		395.700	7617.124	77.148	51.615	
		395.800	7448.265	77.149	50.191	
		395.900	7556.769	77.158	49.120	
		396.000	8072.592	77.198	48.380	
		396.100	8066.188	77.232	48.320	
		396.200	7969.049	77.242	48.380	
		396.300	7980.138	77.249	48.440	
		396.400	8024.925	77.249	49.020	
		396.500	8072.548	77.255	49.120	
		396.600	8045.728	77.284	49.220	
		396.700	7967.083	77.311	49.405	
		396.800	8252.141	77.332	49.916	
		396.900	8594.141	77.350	50.465	
		397.000	9113.999	77.350	51.173	
		397.100	9736.038	77.353	52.536	
		397.200	10327.631	77.369	54.220	
		397.300	10911.046	77.389	56.325	
		397.400	11520.899	77.423	58.718	
		397.500	11736.873	77.450	60.640	
		397.600	11249.650	77.450	62.508	
		397.700	10613.540	77.450	63.688	
		397.800	9547.717	77.450	64.088	
		397.900	8871.151	77.450	64.158	
		398.000	8630.214	77.450	62.750	
		398.100	8171.123	77.450	60.140	
		398.200	7587.957	77.450	57.179	
		398.300	6857.504	77.450	54.203	
		398.400	5907.434	77.450	50.464	
		398.500	5027.908	77.450	47.103	
		398.600	4495.965	77.450	43.272	
		398.700	4331.500	77.450	39.902	
		398.800	4402.359	77.450	37.256	
		398.900	4700.074	77.450	34.755	
		399.000	5446.295	77.450	33.456	
		399.100	6825.480	77.450	32.928	
		399.200	8216.494	77.450	32.652	
		399.300	8168.965	77.450	32.692	
		399.400	7502.767	77.450	33.348	
		399.500	7006.750	77.450	33.596	
		399.600	6744.700	77.450	33.948	
		399.700	7049.576	77.443	34.038	
		399.800	7057.957	77.417	33.788	
		399.900	7392.730	77.391	33.675	
		400.000	7534.408	77.367	33.975	
		400.100	7449.090	77.350	34.325	
		400.200	7489.492	77.350	34.750	
		400.300	7563.743	77.350	35.000	
		400.400	7695.965	77.350	35.317	
		400.500	7807.257	77.350	35.384	
		400.600	8059.164	77.350	35.451	
		400.700	8770.050	77.350	35.656	
		400.800	9356.525	77.350	36.464	
		400.900	10022.255	77.350	37.786	
		401.000	10695.588	77.350	38.990	
		401.100	11142.919	77.350	40.542	
		401.200	10854.538	77.350	42.268	
		401.300	10293.145	77.350	44.113	
		401.400	10803.443	77.350	46.121	
		401.500	11378.725	77.350	48.475	
		401.600	11683.047	77.350	50.921	
		401.700	12001.558	77.350	53.194	
		401.800	12389.985	77.350	55.529	
		401.900	12693.667	77.350	57.689	
		402.000	12304.320	77.350	58.228	
		402.100	11326.368	77.350	58.188	
		402.200	10869.989	77.350	57.508	
		402.300	10536.805	77.350	55.632	
		402.400	10197.560	77.350	52.868	
		402.500	9871.329	77.350	50.800	
		402.600	9513.318	77.350	48.300	
		402.700	9110.606	77.350	45.968	
		402.800	8749.902	77.350	44.136	
		402.900	8686.268	77.350	42.623	
		403.000	9078.716	77.350	41.526	
		403.100	9271.729	77.350	41.042	
		403.200	8870.741	77.350	41.016	
		403.300	9038.330	77.350	41.416	
		403.400	9009.146	77.350	41.729	
		403.500	8655.400	77.350	41.830	
		403.600	8463.510	77.350	41.780	
		403.700	8451.732	77.363	41.200	
		403.800	8360.225	77.409	39.930	
		403.900	8113.725	77.442	38.420	
		404.000	7969.543	77.446	37.940	
		404.100	8214.818	77.450	37.860	
		404.200	8614.375	77.450	38.210	
		404.300	8716.703	77.450	39.041	
		404.400	8719.998	77.450	39.955	
		404.500	9068.884	77.450	40.486	
		404.600	9228.945	77.450	41.086	
		404.700	9315.948	77.450	41.593	
		404.800	9581.760	77.450	42.017	
		404.900	10000.289	77.455	42.841	
		405.000	10373.281	77.471	44.003	
		405.100	10737.254	77.493	45.380	
		405.200	10703.943	77.527	46.880	
		405.300	9997.282	77.550	48.348	
		405.400	9567.294	77.550	49.684	
		405.500	9850.792	77.550	50.980	
		405.600	10206.370	77.550	52.448	
		405.700	10725.133	77.550	53.848	
		405.800	11451.886	77.550	55.394	
		405.900	12029.073	77.550	57.227	
		406.000	12341.231	77.550	59.127	
		406.100	12345.310	77.550	61.060	
		406.200	12111.782	77.550	63.126	
		406.300	11856.329	77.550	65.359	
		406.400	11505.750	77.550	67.527	
		406.500	11366.500	77.550	69.526	
		406.600	11657.528	77.550	71.510	
		406.700	11800.215	77.550	72.602	
		406.800	11037.411	77.550	72.902	
		406.900	10298.549	77.550	72.692	
		407.000	9930.167	77.550	71.050	
		407.100	9486.854	77.550	68.414	
		407.200	8837.741	77.550	65.548	
		407.300	8577.593	77.550	62.265	
		407.400	9492.242	77.550	58.445	
		407.500	10524.241	77.550	55.145	
		407.600	10135.333	77.550	51.880	
		407.700	9529.689	77.550	48.750	
		407.800	8995.117	77.550	45.750	
		407.900	8647.353	77.550	42.960	
		408.000	8348.093	77.550	40.735	
		408.100	8144.551	77.550	38.852	
		408.200	7882.140	77.550	37.088	
		408.300	7468.734	77.550	35.640	
		408.400	7079.708	77.550	34.604	
		408.500	6846.662	77.550	33.792	
		408.600	6994.578	77.550	33.564	
		408.700	7733.802	77.566	33.554	
		408.800	8478.372	77.610	33.704	
		408.900	8419.475	77.640	33.837	
		409.000	7825.112	77.646	34.048	
		409.100	7382.479	77.650	34.448	
		409.200	7258.821	77.650	34.681	
		409.300	7607.827	77.650	34.632	
		409.400	8484.867	77.650	34.748	
		409.500	9288.432	77.660	35.148	
		409.600	9753.404	77.688	35.628	
		409.700	10228.769	77.713	36.418	
		409.800	10634.214	77.736	37.746	
		409.900	10933.791	77.750	39.332	
		410.000	11159.351	77.750	40.580	
		410.100	11573.479	77.750	41.732	
		410.200	12030.309	77.750	43.360	
		410.300	12405.443	77.754	45.360	
		410.400	12654.125	77.765	47.497	
		410.500	12702.978	77.787	49.797	
		410.600	12381.148	77.826	52.097	
		410.700	11388.844	77.850	54.475	
		410.800	9941.931	77.850	56.936	
		410.900	9782.785	77.850	59.297	
		411.000	10139.294	77.850	61.597	
		411.100	10540.189	77.850	63.858	
		411.200	10925.410	77.850	66.120	
		411.300	11189.188	77.850	68.540	
		411.400	11386.001	77.850	70.980	
		411.500	11786.074	77.850	73.100	
		411.600	12217.309	77.850	75.060	
		411.700	11960.708	77.850	76.880	
		411.800	11234.318	77.850	78.460	
		411.900	10921.797	77.850	79.956	
		412.000	11114.910	77.850	81.474	
		412.100	11310.691	77.850	82.874	
		412.200	11409.513	77.850	84.397	
		412.300	11480.045	77.850	86.179	
		412.400	11592.412	77.850	87.874	
		412.500	11764.237	77.850	89.438	
		412.600	11976.461	77.850	90.951	
		412.700	11607.369	77.850	91.516	
		412.800	10729.036	77.850	91.274	
		412.900	10422.882	77.850	90.302	
		413.000	10054.087	77.850	87.856	
		413.100	9474.184	77.850	84.530	
		413.200	9009.999	77.850	81.030	
		413.300	9462.827	77.850	76.774	
		413.400	10757.749	77.850	72.023	
		413.500	11469.557	77.869	68.209	
		413.600	12080.184	77.914	64.509	
		413.700	12652.083	77.942	60.809	
		413.800	12172.406	77.947	57.109	
		413.900	11113.504	77.967	53.538	
		414.000	10089.495	78.006	50.095	
		414.100	9269.752	78.033	46.724	
		414.200	8673.208	78.044	43.668	
		414.300	8221.377	78.050	41.088	
		414.400	7817.152	78.050	38.788	
		414.500	7371.321	78.063	36.796	
		414.600	7108.755	78.094	35.328	
		414.700	6974.661	78.131	34.072	
		414.800	6790.398	78.178	33.268	
		414.900	7056.730	78.214	32.968	
		415.000	7697.717	78.237	32.868	
		415.100	8015.136	78.258	33.018	
		415.200	8173.523	78.277	33.415	
		415.300	8441.267	78.301	34.250	
		415.400	8688.410	78.333	35.340	
		415.500	8927.056	78.355	36.630	
		415.600	9286.403	78.365	38.120	
		415.700	9816.352	78.389	39.782	
		415.800	10379.437	78.428	41.620	
		415.900	10882.235	78.449	43.528	
		416.000	11301.671	78.449	45.190	
		416.100	11033.681	78.449	46.828	
		416.200	10131.936	78.449	48.720	
		416.300	9720.310	78.449	50.720	
		416.400	9774.504	78.449	52.766	
		416.500	9788.449	78.449	55.075	
		416.600	9847.311	78.449	57.434	
		416.700	10124.970	78.449	59.493	
		416.800	10666.603	78.449	61.534	
		416.900	11140.445	78.449	63.405	
		417.000	11485.059	78.449	64.905	
		417.100	11823.564	78.449	66.311	
		417.200	11948.026	78.449	67.517	
		417.300	11282.148	78.449	68.580	
		417.400	10430.072	78.449	69.724	
		417.500	10474.757	78.442	71.072	
		417.600	10872.860	78.426	72.328	
		417.700	11177.703	78.401	73.236	
		417.800	10626.301	78.368	73.984	
		417.900	9500.639	78.350	74.064	
		418.000	8780.843	78.350	73.014	
		418.100	8383.555	78.350	71.418	
		418.200	8768.919	78.350	69.422	
		418.300	9594.951	78.350	66.438	
		418.400	9528.873	78.350	63.275	
		418.500	8720.299	78.350	60.726	
		418.600	8118.328	78.350	58.126	
		418.700	7683.956	78.350	55.624	
		418.800	7068.971	78.350	53.400	
		418.900	6678.913	78.350	51.300	
		419.000	6509.028	78.350	48.950	
		419.100	6082.650	78.350	46.450	
		419.200	5565.796	78.350	44.100	
		419.300	5156.182	78.350	41.800	
		419.400	4941.918	78.350	39.600	
		419.500	4843.458	78.368	37.478	
		419.600	4778.064	78.405	35.329	
		419.700	4695.372	78.429	33.382	
		419.800	4558.643	78.443	31.531	
		419.900	4299.008	78.449	29.886	
		420.000	4106.872	78.449	28.690	
		420.100	4112.377	78.463	27.741	
		420.200	4107.129	78.490	26.739	
		420.300	4168.675	78.516	25.784	
		420.400	4349.224	78.538	24.828	
		420.500	4464.913	78.560	23.676	
		420.600	4512.081	78.580	22.424	
		420.700	4551.641	78.606	21.176	
		420.800	4596.746	78.635	19.872	
		420.900	4646.175	78.649	18.576	
		421.000	4681.626	78.649	17.428	
		421.100	4715.005	78.654	16.317	
		421.200	4769.076	78.663	15.323	
		421.300	4803.490	78.689	14.476	
		421.400	4840.361	78.730	13.623	
		421.500	4886.750	78.750	12.776	
		421.600	4916.912	78.750	12.029	
		421.700	4937.457	78.750	11.276	
		421.800	4945.869	78.750	10.522	
		421.900	4950.596	78.750	9.768	
		422.000	4962.287	78.750	9.022	
		422.100	4984.667	78.750	8.322	
		422.200	5005.067	78.750	7.622	
		422.300	5017.888	78.750	6.922	
		422.400	5031.187	78.750	6.222	
		422.500	5030.065	78.728	5.522	
		422.600	4983.922	78.687	4.870	
		422.700	4914.679	78.664	4.215	
		422.800	4859.630	78.654	3.570	
		422.900	4820.603	78.649	2.915	
		423.000	4791.418	78.649	2.215	
		423.100	4753.251	78.632	1.570	
		423.200	4701.770	78.601	1.080	
		423.300	4650.852	78.576	0.676	
		423.400	4593.900	78.558	0.332	
		423.500	4487.856	78.534	0.144	
		423.600	4284.665	78.506	0.156	
		423.700	4140.230	78.493	0.256	
		423.800	4114.415	78.493	0.300	
		423.900	4114.415	78.493	0.300	
		424.000	4114.415	78.493	0.300	
		424.100	4114.415	78.493	0.300	
		424.200	4114.415	78.493	0.300	
		424.300	4114.415	78.493	0.300	
		424.400	4114.415	78.493	0.300	
		424.443	4114.415	78.493	0.300	

Lap:
1	_07.04.443_	424.443	